          Evm          Svm            E11          E22          E33          E23          E13          E12         SCAU11       SCAU22       SCAU33       SCAU23       SCAU13       SCAU12      TEMP
  0.00000E+00  0.94300E+02    0.00000E+00  0.00000E+00  0.00000E+00  0.00000E+00  0.00000E+00  0.00000E+00    0.94298E+02  0.00000E+00  0.00000E+00 -0.21871E+00  0.13560E+00  0.26056E+00
  0.99998E-03  0.94932E+02    0.10000E-02 -0.47967E-03 -0.52033E-03  0.00000E+00  0.00000E+00  0.00000E+00    0.94930E+02  0.00000E+00  0.00000E+00 -0.22369E+00  0.13889E+00  0.26407E+00
  0.20000E-02  0.95528E+02    0.20000E-02 -0.95784E-03 -0.10422E-02  0.00000E+00  0.00000E+00  0.00000E+00    0.95525E+02  0.00000E+00  0.00000E+00 -0.22409E+00  0.14004E+00  0.26641E+00
  0.29999E-02  0.96186E+02    0.30000E-02 -0.14356E-02 -0.15644E-02  0.00000E+00  0.00000E+00  0.00000E+00    0.96183E+02  0.00000E+00  0.00000E+00 -0.22533E+00  0.14131E+00  0.26805E+00
  0.39999E-02  0.96842E+02    0.40000E-02 -0.19132E-02 -0.20868E-02  0.00000E+00  0.00000E+00  0.00000E+00    0.96839E+02  0.00000E+00  0.00000E+00 -0.22640E+00  0.14261E+00  0.26940E+00
  0.49999E-02  0.97494E+02    0.50000E-02 -0.23906E-02 -0.26094E-02  0.00000E+00  0.00000E+00  0.00000E+00    0.97491E+02  0.00000E+00  0.00000E+00 -0.22744E+00  0.14394E+00  0.27065E+00
  0.59999E-02  0.98129E+02    0.60000E-02 -0.28678E-02 -0.31322E-02  0.00000E+00  0.00000E+00  0.00000E+00    0.98127E+02  0.00000E+00  0.00000E+00 -0.22625E+00  0.14621E+00  0.27185E+00
  0.69998E-02  0.98781E+02    0.70000E-02 -0.33451E-02 -0.36549E-02  0.00000E+00  0.00000E+00  0.00000E+00    0.98779E+02  0.00000E+00  0.00000E+00 -0.22719E+00  0.14774E+00  0.27300E+00
  0.79998E-02  0.99422E+02    0.80000E-02 -0.38222E-02 -0.41778E-02  0.00000E+00  0.00000E+00  0.00000E+00    0.99419E+02  0.00000E+00  0.00000E+00 -0.22807E+00  0.14917E+00  0.27410E+00
  0.89998E-02  0.10006E+03    0.90000E-02 -0.42993E-02 -0.47007E-02  0.00000E+00  0.00000E+00  0.00000E+00    0.10006E+03  0.00000E+00  0.00000E+00 -0.22889E+00  0.15062E+00  0.27516E+00
  0.99998E-02  0.10069E+03    0.10000E-01 -0.47764E-02 -0.52236E-02  0.00000E+00  0.00000E+00  0.00000E+00    0.10069E+03  0.00000E+00  0.00000E+00 -0.22967E+00  0.15209E+00  0.27620E+00
  0.11000E-01  0.10132E+03    0.11000E-01 -0.52535E-02 -0.57465E-02  0.00000E+00  0.00000E+00  0.00000E+00    0.10131E+03  0.00000E+00  0.00000E+00 -0.23040E+00  0.15359E+00  0.27722E+00
  0.12000E-01  0.10194E+03    0.12000E-01 -0.57305E-02 -0.62695E-02  0.00000E+00  0.00000E+00  0.00000E+00    0.10194E+03  0.00000E+00  0.00000E+00 -0.23109E+00  0.15511E+00  0.27823E+00
  0.13000E-01  0.10256E+03    0.13000E-01 -0.62075E-02 -0.67925E-02  0.00000E+00  0.00000E+00  0.00000E+00    0.10256E+03  0.00000E+00  0.00000E+00 -0.23172E+00  0.15665E+00  0.27921E+00
  0.14000E-01  0.10318E+03    0.14000E-01 -0.66845E-02 -0.73155E-02  0.00000E+00  0.00000E+00  0.00000E+00    0.10318E+03  0.00000E+00  0.00000E+00 -0.23231E+00  0.15822E+00  0.28019E+00
  0.15000E-01  0.10379E+03    0.15000E-01 -0.71614E-02 -0.78386E-02  0.00000E+00  0.00000E+00  0.00000E+00    0.10379E+03  0.00000E+00  0.00000E+00 -0.23286E+00  0.15981E+00  0.28115E+00
  0.16000E-01  0.10440E+03    0.16000E-01 -0.76384E-02 -0.83616E-02  0.00000E+00  0.00000E+00  0.00000E+00    0.10440E+03  0.00000E+00  0.00000E+00 -0.23336E+00  0.16143E+00  0.28209E+00
  0.17000E-01  0.10501E+03    0.17000E-01 -0.81153E-02 -0.88847E-02  0.00000E+00  0.00000E+00  0.00000E+00    0.10500E+03  0.00000E+00  0.00000E+00 -0.23382E+00  0.16307E+00  0.28302E+00
  0.18000E-01  0.10561E+03    0.18000E-01 -0.85922E-02 -0.94078E-02  0.00000E+00  0.00000E+00  0.00000E+00    0.10560E+03  0.00000E+00  0.00000E+00 -0.23423E+00  0.16474E+00  0.28394E+00
  0.19000E-01  0.10621E+03    0.19000E-01 -0.90690E-02 -0.99310E-02  0.00000E+00  0.00000E+00  0.00000E+00    0.10620E+03  0.00000E+00  0.00000E+00 -0.23460E+00  0.16643E+00  0.28485E+00
  0.20000E-01  0.10680E+03    0.20000E-01 -0.95459E-02 -0.10454E-01  0.00000E+00  0.00000E+00  0.00000E+00    0.10680E+03  0.00000E+00  0.00000E+00 -0.23493E+00  0.16814E+00  0.28575E+00
  0.21000E-01  0.10739E+03    0.21000E-01 -0.10023E-01 -0.10977E-01  0.00000E+00  0.00000E+00  0.00000E+00    0.10739E+03  0.00000E+00  0.00000E+00 -0.23521E+00  0.16987E+00  0.28663E+00
  0.22000E-01  0.10798E+03    0.22000E-01 -0.10500E-01 -0.11500E-01  0.00000E+00  0.00000E+00  0.00000E+00    0.10798E+03  0.00000E+00  0.00000E+00 -0.23545E+00  0.17163E+00  0.28750E+00
  0.22999E-01  0.10856E+03    0.23000E-01 -0.10976E-01 -0.12024E-01  0.00000E+00  0.00000E+00  0.00000E+00    0.10856E+03  0.00000E+00  0.00000E+00 -0.23565E+00  0.17341E+00  0.28837E+00
  0.23999E-01  0.10914E+03    0.24000E-01 -0.11453E-01 -0.12547E-01  0.00000E+00  0.00000E+00  0.00000E+00    0.10914E+03  0.00000E+00  0.00000E+00 -0.23581E+00  0.17522E+00  0.28922E+00
  0.24999E-01  0.10972E+03    0.25000E-01 -0.11930E-01 -0.13070E-01  0.00000E+00  0.00000E+00  0.00000E+00    0.10972E+03  0.00000E+00  0.00000E+00 -0.23592E+00  0.17705E+00  0.29006E+00
  0.25999E-01  0.11029E+03    0.26000E-01 -0.12406E-01 -0.13594E-01  0.00000E+00  0.00000E+00  0.00000E+00    0.11029E+03  0.00000E+00  0.00000E+00 -0.23600E+00  0.17890E+00  0.29090E+00
  0.26999E-01  0.11086E+03    0.27000E-01 -0.12883E-01 -0.14117E-01  0.00000E+00  0.00000E+00  0.00000E+00    0.11086E+03  0.00000E+00  0.00000E+00 -0.23603E+00  0.18077E+00  0.29172E+00
  0.27999E-01  0.11143E+03    0.28000E-01 -0.13360E-01 -0.14640E-01  0.00000E+00  0.00000E+00  0.00000E+00    0.11143E+03  0.00000E+00  0.00000E+00 -0.23603E+00  0.18267E+00  0.29254E+00
  0.28999E-01  0.11199E+03    0.29000E-01 -0.13836E-01 -0.15164E-01  0.00000E+00  0.00000E+00  0.00000E+00    0.11199E+03  0.00000E+00  0.00000E+00 -0.23599E+00  0.18458E+00  0.29334E+00
  0.29999E-01  0.11255E+03    0.30000E-01 -0.14313E-01 -0.15687E-01  0.00000E+00  0.00000E+00  0.00000E+00    0.11255E+03  0.00000E+00  0.00000E+00 -0.23590E+00  0.18652E+00  0.29414E+00
  0.30999E-01  0.11311E+03    0.31000E-01 -0.14790E-01 -0.16210E-01  0.00000E+00  0.00000E+00  0.00000E+00    0.11311E+03  0.00000E+00  0.00000E+00 -0.23578E+00  0.18848E+00  0.29493E+00
  0.31999E-01  0.11366E+03    0.32000E-01 -0.15266E-01 -0.16734E-01  0.00000E+00  0.00000E+00  0.00000E+00    0.11366E+03  0.00000E+00  0.00000E+00 -0.23561E+00  0.19046E+00  0.29572E+00
  0.32999E-01  0.11421E+03    0.33000E-01 -0.15743E-01 -0.17257E-01  0.00000E+00  0.00000E+00  0.00000E+00    0.11421E+03  0.00000E+00  0.00000E+00 -0.23542E+00  0.19247E+00  0.29649E+00
  0.33999E-01  0.11476E+03    0.34000E-01 -0.16219E-01 -0.17781E-01  0.00000E+00  0.00000E+00  0.00000E+00    0.11476E+03  0.00000E+00  0.00000E+00 -0.23518E+00  0.19449E+00  0.29726E+00
  0.34999E-01  0.11530E+03    0.35000E-01 -0.16696E-01 -0.18304E-01  0.00000E+00  0.00000E+00  0.00000E+00    0.11530E+03  0.00000E+00  0.00000E+00 -0.23491E+00  0.19653E+00  0.29802E+00
  0.35999E-01  0.11584E+03    0.36000E-01 -0.17172E-01 -0.18828E-01  0.00000E+00  0.00000E+00  0.00000E+00    0.11584E+03  0.00000E+00  0.00000E+00 -0.23461E+00  0.19860E+00  0.29877E+00
  0.36999E-01  0.11638E+03    0.37000E-01 -0.17649E-01 -0.19351E-01  0.00000E+00  0.00000E+00  0.00000E+00    0.11638E+03  0.00000E+00  0.00000E+00 -0.23426E+00  0.20068E+00  0.29952E+00
  0.37999E-01  0.11692E+03    0.38000E-01 -0.18125E-01 -0.19875E-01  0.00000E+00  0.00000E+00  0.00000E+00    0.11691E+03  0.00000E+00  0.00000E+00 -0.23388E+00  0.20279E+00  0.30026E+00
  0.38999E-01  0.11745E+03    0.39000E-01 -0.18601E-01 -0.20399E-01  0.00000E+00  0.00000E+00  0.00000E+00    0.11745E+03  0.00000E+00  0.00000E+00 -0.23347E+00  0.20491E+00  0.30099E+00
  0.39999E-01  0.11798E+03    0.40000E-01 -0.19078E-01 -0.20922E-01  0.00000E+00  0.00000E+00  0.00000E+00    0.11797E+03  0.00000E+00  0.00000E+00 -0.23302E+00  0.20706E+00  0.30172E+00
  0.40999E-01  0.11850E+03    0.41000E-01 -0.19554E-01 -0.21446E-01  0.00000E+00  0.00000E+00  0.00000E+00    0.11850E+03  0.00000E+00  0.00000E+00 -0.23253E+00  0.20922E+00  0.30244E+00
  0.41999E-01  0.11902E+03    0.42000E-01 -0.20030E-01 -0.21970E-01  0.00000E+00  0.00000E+00  0.00000E+00    0.11902E+03  0.00000E+00  0.00000E+00 -0.23201E+00  0.21141E+00  0.30316E+00
  0.42999E-01  0.11954E+03    0.43000E-01 -0.20507E-01 -0.22493E-01  0.00000E+00  0.00000E+00  0.00000E+00    0.11954E+03  0.00000E+00  0.00000E+00 -0.23146E+00  0.21361E+00  0.30387E+00
  0.43999E-01  0.12002E+03    0.44000E-01 -0.20983E-01 -0.23017E-01  0.00000E+00  0.00000E+00  0.00000E+00    0.12002E+03  0.00000E+00  0.00000E+00 -0.23428E+00  0.21407E+00  0.30460E+00
  0.44999E-01  0.12057E+03    0.45000E-01 -0.21459E-01 -0.23541E-01  0.00000E+00  0.00000E+00  0.00000E+00    0.12056E+03  0.00000E+00  0.00000E+00 -0.23049E+00  0.21791E+00  0.30524E+00
  0.45999E-01  0.12104E+03    0.46000E-01 -0.21935E-01 -0.24065E-01  0.00000E+00  0.00000E+00  0.00000E+00    0.12104E+03  0.00000E+00  0.00000E+00 -0.23304E+00  0.21851E+00  0.30600E+00
  0.46999E-01  0.12155E+03    0.47000E-01 -0.22412E-01 -0.24588E-01  0.00000E+00  0.00000E+00  0.00000E+00    0.12155E+03  0.00000E+00  0.00000E+00 -0.23244E+00  0.22068E+00  0.30671E+00
  0.47999E-01  0.12206E+03    0.48000E-01 -0.22888E-01 -0.25112E-01  0.00000E+00  0.00000E+00  0.00000E+00    0.12206E+03  0.00000E+00  0.00000E+00 -0.23174E+00  0.22294E+00  0.30740E+00
  0.48999E-01  0.12256E+03    0.49000E-01 -0.23364E-01 -0.25636E-01  0.00000E+00  0.00000E+00  0.00000E+00    0.12256E+03  0.00000E+00  0.00000E+00 -0.23100E+00  0.22523E+00  0.30809E+00
  0.49999E-01  0.12306E+03    0.50000E-01 -0.23840E-01 -0.26160E-01  0.00000E+00  0.00000E+00  0.00000E+00    0.12306E+03  0.00000E+00  0.00000E+00 -0.23023E+00  0.22754E+00  0.30878E+00
  0.50999E-01  0.12355E+03    0.51000E-01 -0.24316E-01 -0.26684E-01  0.00000E+00  0.00000E+00  0.00000E+00    0.12355E+03  0.00000E+00  0.00000E+00 -0.22942E+00  0.22986E+00  0.30947E+00
  0.51999E-01  0.12405E+03    0.52000E-01 -0.24792E-01 -0.27208E-01  0.00000E+00  0.00000E+00  0.00000E+00    0.12405E+03  0.00000E+00  0.00000E+00 -0.22859E+00  0.23220E+00  0.31016E+00
  0.52999E-01  0.12454E+03    0.53000E-01 -0.25268E-01 -0.27732E-01  0.00000E+00  0.00000E+00  0.00000E+00    0.12454E+03  0.00000E+00  0.00000E+00 -0.22772E+00  0.23456E+00  0.31084E+00
  0.53999E-01  0.12505E+03    0.54000E-01 -0.25744E-01 -0.28256E-01  0.00000E+00  0.00000E+00  0.00000E+00    0.12504E+03  0.00000E+00  0.00000E+00 -0.22360E+00  0.23873E+00  0.31137E+00
  0.54999E-01  0.12551E+03    0.55000E-01 -0.26220E-01 -0.28780E-01  0.00000E+00  0.00000E+00  0.00000E+00    0.12551E+03  0.00000E+00  0.00000E+00 -0.22585E+00  0.23942E+00  0.31220E+00
  0.55999E-01  0.12601E+03    0.56000E-01 -0.26696E-01 -0.29304E-01  0.00000E+00  0.00000E+00  0.00000E+00    0.12601E+03  0.00000E+00  0.00000E+00 -0.22174E+00  0.24357E+00  0.31272E+00
  0.56999E-01  0.12647E+03    0.57000E-01 -0.27172E-01 -0.29828E-01  0.00000E+00  0.00000E+00  0.00000E+00    0.12647E+03  0.00000E+00  0.00000E+00 -0.22392E+00  0.24426E+00  0.31355E+00
  0.57999E-01  0.12694E+03    0.58000E-01 -0.27648E-01 -0.30352E-01  0.00000E+00  0.00000E+00  0.00000E+00    0.12694E+03  0.00000E+00  0.00000E+00 -0.22336E+00  0.24645E+00  0.31419E+00
  0.58999E-01  0.12742E+03    0.59000E-01 -0.28124E-01 -0.30876E-01  0.00000E+00  0.00000E+00  0.00000E+00    0.12742E+03  0.00000E+00  0.00000E+00 -0.22196E+00  0.24907E+00  0.31488E+00
  0.59999E-01  0.12788E+03    0.60000E-01 -0.28600E-01 -0.31400E-01  0.00000E+00  0.00000E+00  0.00000E+00    0.12788E+03  0.00000E+00  0.00000E+00 -0.22127E+00  0.25138E+00  0.31553E+00
  0.60999E-01  0.12837E+03    0.61000E-01 -0.29075E-01 -0.31925E-01  0.00000E+00  0.00000E+00  0.00000E+00    0.12836E+03  0.00000E+00  0.00000E+00 -0.21981E+00  0.25404E+00  0.31622E+00
  0.61999E-01  0.12882E+03    0.62000E-01 -0.29551E-01 -0.32449E-01  0.00000E+00  0.00000E+00  0.00000E+00    0.12882E+03  0.00000E+00  0.00000E+00 -0.21906E+00  0.25638E+00  0.31687E+00
  0.62999E-01  0.12930E+03    0.63000E-01 -0.30027E-01 -0.32973E-01  0.00000E+00  0.00000E+00  0.00000E+00    0.12929E+03  0.00000E+00  0.00000E+00 -0.21754E+00  0.25907E+00  0.31755E+00
  0.63999E-01  0.12974E+03    0.64000E-01 -0.30503E-01 -0.33497E-01  0.00000E+00  0.00000E+00  0.00000E+00    0.12974E+03  0.00000E+00  0.00000E+00 -0.21674E+00  0.26144E+00  0.31822E+00
  0.64999E-01  0.13022E+03    0.65000E-01 -0.30978E-01 -0.34022E-01  0.00000E+00  0.00000E+00  0.00000E+00    0.13021E+03  0.00000E+00  0.00000E+00 -0.21517E+00  0.26417E+00  0.31889E+00
  0.65999E-01  0.13066E+03    0.66000E-01 -0.31454E-01 -0.34546E-01  0.00000E+00  0.00000E+00  0.00000E+00    0.13066E+03  0.00000E+00  0.00000E+00 -0.21432E+00  0.26657E+00  0.31955E+00
  0.66999E-01  0.13113E+03    0.67000E-01 -0.31930E-01 -0.35070E-01  0.00000E+00  0.00000E+00  0.00000E+00    0.13112E+03  0.00000E+00  0.00000E+00 -0.21269E+00  0.26934E+00  0.32023E+00
  0.67999E-01  0.13157E+03    0.68000E-01 -0.32405E-01 -0.35595E-01  0.00000E+00  0.00000E+00  0.00000E+00    0.13156E+03  0.00000E+00  0.00000E+00 -0.21179E+00  0.27177E+00  0.32090E+00
  0.68999E-01  0.13201E+03    0.69000E-01 -0.32881E-01 -0.36119E-01  0.00000E+00  0.00000E+00  0.00000E+00    0.13201E+03  0.00000E+00  0.00000E+00 -0.21056E+00  0.27436E+00  0.32157E+00
  0.69999E-01  0.13246E+03    0.70000E-01 -0.33357E-01 -0.36643E-01  0.00000E+00  0.00000E+00  0.00000E+00    0.13246E+03  0.00000E+00  0.00000E+00 -0.20924E+00  0.27700E+00  0.32225E+00
  0.70999E-01  0.13290E+03    0.71000E-01 -0.33832E-01 -0.37168E-01  0.00000E+00  0.00000E+00  0.00000E+00    0.13290E+03  0.00000E+00  0.00000E+00 -0.20790E+00  0.27965E+00  0.32292E+00
  0.71999E-01  0.13335E+03    0.72000E-01 -0.34308E-01 -0.37692E-01  0.00000E+00  0.00000E+00  0.00000E+00    0.13334E+03  0.00000E+00  0.00000E+00 -0.20652E+00  0.28232E+00  0.32360E+00
  0.72998E-01  0.13379E+03    0.73000E-01 -0.34783E-01 -0.38217E-01  0.00000E+00  0.00000E+00  0.00000E+00    0.13378E+03  0.00000E+00  0.00000E+00 -0.20512E+00  0.28501E+00  0.32429E+00
  0.73998E-01  0.13422E+03    0.74000E-01 -0.35259E-01 -0.38741E-01  0.00000E+00  0.00000E+00  0.00000E+00    0.13422E+03  0.00000E+00  0.00000E+00 -0.20370E+00  0.28771E+00  0.32497E+00
  0.74998E-01  0.13466E+03    0.75000E-01 -0.35734E-01 -0.39266E-01  0.00000E+00  0.00000E+00  0.00000E+00    0.13466E+03  0.00000E+00  0.00000E+00 -0.20225E+00  0.29043E+00  0.32566E+00
  0.75998E-01  0.13509E+03    0.76000E-01 -0.36209E-01 -0.39791E-01  0.00000E+00  0.00000E+00  0.00000E+00    0.13509E+03  0.00000E+00  0.00000E+00 -0.20078E+00  0.29317E+00  0.32636E+00
  0.76998E-01  0.13552E+03    0.77000E-01 -0.36685E-01 -0.40315E-01  0.00000E+00  0.00000E+00  0.00000E+00    0.13552E+03  0.00000E+00  0.00000E+00 -0.19929E+00  0.29592E+00  0.32705E+00
  0.77998E-01  0.13595E+03    0.78000E-01 -0.37160E-01 -0.40840E-01  0.00000E+00  0.00000E+00  0.00000E+00    0.13595E+03  0.00000E+00  0.00000E+00 -0.19778E+00  0.29869E+00  0.32776E+00
  0.78998E-01  0.13637E+03    0.79000E-01 -0.37636E-01 -0.41364E-01  0.00000E+00  0.00000E+00  0.00000E+00    0.13637E+03  0.00000E+00  0.00000E+00 -0.19624E+00  0.30148E+00  0.32847E+00
  0.79998E-01  0.13680E+03    0.80000E-01 -0.38111E-01 -0.41889E-01  0.00000E+00  0.00000E+00  0.00000E+00    0.13680E+03  0.00000E+00  0.00000E+00 -0.19468E+00  0.30428E+00  0.32918E+00
  0.80998E-01  0.13722E+03    0.81000E-01 -0.38586E-01 -0.42414E-01  0.00000E+00  0.00000E+00  0.00000E+00    0.13722E+03  0.00000E+00  0.00000E+00 -0.19309E+00  0.30711E+00  0.32991E+00
  0.81998E-01  0.13764E+03    0.82000E-01 -0.39061E-01 -0.42939E-01  0.00000E+00  0.00000E+00  0.00000E+00    0.13764E+03  0.00000E+00  0.00000E+00 -0.19149E+00  0.30994E+00  0.33063E+00
  0.82998E-01  0.13806E+03    0.83000E-01 -0.39537E-01 -0.43463E-01  0.00000E+00  0.00000E+00  0.00000E+00    0.13805E+03  0.00000E+00  0.00000E+00 -0.18986E+00  0.31280E+00  0.33137E+00
  0.83998E-01  0.13847E+03    0.84000E-01 -0.40012E-01 -0.43988E-01  0.00000E+00  0.00000E+00  0.00000E+00    0.13847E+03  0.00000E+00  0.00000E+00 -0.18060E+00  0.31926E+00  0.33215E+00
  0.84998E-01  0.13886E+03    0.85000E-01 -0.40487E-01 -0.44513E-01  0.00000E+00  0.00000E+00  0.00000E+00    0.13885E+03  0.00000E+00  0.00000E+00 -0.18092E+00  0.32171E+00  0.33301E+00
  0.85998E-01  0.13926E+03    0.86000E-01 -0.40962E-01 -0.45038E-01  0.00000E+00  0.00000E+00  0.00000E+00    0.13926E+03  0.00000E+00  0.00000E+00 -0.17893E+00  0.32473E+00  0.33379E+00
  0.86998E-01  0.13967E+03    0.87000E-01 -0.41437E-01 -0.45563E-01  0.00000E+00  0.00000E+00  0.00000E+00    0.13966E+03  0.00000E+00  0.00000E+00 -0.17721E+00  0.32769E+00  0.33457E+00
  0.87998E-01  0.14007E+03    0.88000E-01 -0.41912E-01 -0.46088E-01  0.00000E+00  0.00000E+00  0.00000E+00    0.14007E+03  0.00000E+00  0.00000E+00 -0.17548E+00  0.33066E+00  0.33536E+00
  0.88998E-01  0.14053E+03    0.89000E-01 -0.42387E-01 -0.46613E-01  0.00000E+00  0.00000E+00  0.00000E+00    0.14053E+03  0.00000E+00  0.00000E+00 -0.17199E+00  0.33437E+00  0.33605E+00
  0.89998E-01  0.14094E+03    0.90000E-01 -0.42862E-01 -0.47138E-01  0.00000E+00  0.00000E+00  0.00000E+00    0.14094E+03  0.00000E+00  0.00000E+00 -0.17066E+00  0.33728E+00  0.33682E+00
  0.90998E-01  0.14134E+03    0.91000E-01 -0.43337E-01 -0.47663E-01  0.00000E+00  0.00000E+00  0.00000E+00    0.14134E+03  0.00000E+00  0.00000E+00 -0.16888E+00  0.34031E+00  0.33763E+00
  0.91998E-01  0.14174E+03    0.92000E-01 -0.43812E-01 -0.48188E-01  0.00000E+00  0.00000E+00  0.00000E+00    0.14174E+03  0.00000E+00  0.00000E+00 -0.16706E+00  0.34337E+00  0.33845E+00
  0.92998E-01  0.14214E+03    0.93000E-01 -0.44287E-01 -0.48713E-01  0.00000E+00  0.00000E+00  0.00000E+00    0.14213E+03  0.00000E+00  0.00000E+00 -0.16523E+00  0.34644E+00  0.33928E+00
  0.93998E-01  0.14253E+03    0.94000E-01 -0.44762E-01 -0.49238E-01  0.00000E+00  0.00000E+00  0.00000E+00    0.14253E+03  0.00000E+00  0.00000E+00 -0.16339E+00  0.34953E+00  0.34012E+00
  0.94998E-01  0.14292E+03    0.95000E-01 -0.45237E-01 -0.49763E-01  0.00000E+00  0.00000E+00  0.00000E+00    0.14292E+03  0.00000E+00  0.00000E+00 -0.16152E+00  0.35264E+00  0.34098E+00
  0.95998E-01  0.14331E+03    0.96000E-01 -0.45712E-01 -0.50288E-01  0.00000E+00  0.00000E+00  0.00000E+00    0.14331E+03  0.00000E+00  0.00000E+00 -0.15964E+00  0.35577E+00  0.34185E+00
  0.96998E-01  0.14370E+03    0.97000E-01 -0.46187E-01 -0.50813E-01  0.00000E+00  0.00000E+00  0.00000E+00    0.14370E+03  0.00000E+00  0.00000E+00 -0.15774E+00  0.35892E+00  0.34273E+00
  0.97998E-01  0.14409E+03    0.98000E-01 -0.46662E-01 -0.51338E-01  0.00000E+00  0.00000E+00  0.00000E+00    0.14408E+03  0.00000E+00  0.00000E+00 -0.15583E+00  0.36209E+00  0.34363E+00
  0.98998E-01  0.14447E+03    0.99000E-01 -0.47137E-01 -0.51863E-01  0.00000E+00  0.00000E+00  0.00000E+00    0.14447E+03  0.00000E+00  0.00000E+00 -0.15390E+00  0.36528E+00  0.34454E+00
  0.99998E-01  0.14485E+03    0.10000E+00 -0.47611E-01 -0.52389E-01  0.00000E+00  0.00000E+00  0.00000E+00    0.14485E+03  0.00000E+00  0.00000E+00 -0.15195E+00  0.36849E+00  0.34546E+00
