          Evm          Svm            E11          E22          E33          E23          E13          E12         SCAU11       SCAU22       SCAU33       SCAU23       SCAU13       SCAU12      TEMP
  0.00000E+00  0.10083E+03    0.00000E+00  0.00000E+00  0.00000E+00  0.00000E+00  0.00000E+00  0.00000E+00    0.10083E+03  0.00000E+00  0.00000E+00 -0.23386E+00  0.14499E+00  0.27862E+00
  0.99998E-03  0.10146E+03    0.10000E-02 -0.47967E-03 -0.52033E-03  0.00000E+00  0.00000E+00  0.00000E+00    0.10146E+03  0.00000E+00  0.00000E+00 -0.23887E+00  0.14845E+00  0.28226E+00
  0.20000E-02  0.10206E+03    0.20000E-02 -0.95784E-03 -0.10422E-02  0.00000E+00  0.00000E+00  0.00000E+00    0.10206E+03  0.00000E+00  0.00000E+00 -0.23921E+00  0.14961E+00  0.28465E+00
  0.29999E-02  0.10271E+03    0.30000E-02 -0.14356E-02 -0.15644E-02  0.00000E+00  0.00000E+00  0.00000E+00    0.10271E+03  0.00000E+00  0.00000E+00 -0.23825E+00  0.15188E+00  0.28618E+00
  0.39999E-02  0.10337E+03    0.40000E-02 -0.19132E-02 -0.20868E-02  0.00000E+00  0.00000E+00  0.00000E+00    0.10337E+03  0.00000E+00  0.00000E+00 -0.23930E+00  0.15334E+00  0.28763E+00
  0.49999E-02  0.10403E+03    0.50000E-02 -0.23906E-02 -0.26094E-02  0.00000E+00  0.00000E+00  0.00000E+00    0.10402E+03  0.00000E+00  0.00000E+00 -0.24028E+00  0.15471E+00  0.28884E+00
  0.59999E-02  0.10467E+03    0.60000E-02 -0.28679E-02 -0.31321E-02  0.00000E+00  0.00000E+00  0.00000E+00    0.10467E+03  0.00000E+00  0.00000E+00 -0.24119E+00  0.15611E+00  0.28999E+00
  0.69998E-02  0.10532E+03    0.70000E-02 -0.33452E-02 -0.36548E-02  0.00000E+00  0.00000E+00  0.00000E+00    0.10532E+03  0.00000E+00  0.00000E+00 -0.24205E+00  0.15754E+00  0.29109E+00
  0.79998E-02  0.10596E+03    0.80000E-02 -0.38224E-02 -0.41776E-02  0.00000E+00  0.00000E+00  0.00000E+00    0.10596E+03  0.00000E+00  0.00000E+00 -0.24287E+00  0.15900E+00  0.29216E+00
  0.89998E-02  0.10659E+03    0.90000E-02 -0.42995E-02 -0.47005E-02  0.00000E+00  0.00000E+00  0.00000E+00    0.10659E+03  0.00000E+00  0.00000E+00 -0.24364E+00  0.16049E+00  0.29320E+00
  0.99998E-02  0.10723E+03    0.10000E-01 -0.47766E-02 -0.52234E-02  0.00000E+00  0.00000E+00  0.00000E+00    0.10722E+03  0.00000E+00  0.00000E+00 -0.24436E+00  0.16200E+00  0.29421E+00
  0.11000E-01  0.10785E+03    0.11000E-01 -0.52537E-02 -0.57463E-02  0.00000E+00  0.00000E+00  0.00000E+00    0.10785E+03  0.00000E+00  0.00000E+00 -0.24503E+00  0.16354E+00  0.29520E+00
  0.12000E-01  0.10848E+03    0.12000E-01 -0.57307E-02 -0.62693E-02  0.00000E+00  0.00000E+00  0.00000E+00    0.10848E+03  0.00000E+00  0.00000E+00 -0.24566E+00  0.16511E+00  0.29617E+00
  0.13000E-01  0.10910E+03    0.13000E-01 -0.62077E-02 -0.67923E-02  0.00000E+00  0.00000E+00  0.00000E+00    0.10910E+03  0.00000E+00  0.00000E+00 -0.24623E+00  0.16670E+00  0.29712E+00
  0.14000E-01  0.10972E+03    0.14000E-01 -0.66847E-02 -0.73153E-02  0.00000E+00  0.00000E+00  0.00000E+00    0.10971E+03  0.00000E+00  0.00000E+00 -0.24676E+00  0.16832E+00  0.29806E+00
  0.15000E-01  0.11033E+03    0.15000E-01 -0.71616E-02 -0.78384E-02  0.00000E+00  0.00000E+00  0.00000E+00    0.11033E+03  0.00000E+00  0.00000E+00 -0.24725E+00  0.16996E+00  0.29898E+00
  0.16000E-01  0.11094E+03    0.16000E-01 -0.76386E-02 -0.83614E-02  0.00000E+00  0.00000E+00  0.00000E+00    0.11094E+03  0.00000E+00  0.00000E+00 -0.24769E+00  0.17163E+00  0.29989E+00
  0.17000E-01  0.11154E+03    0.17000E-01 -0.81155E-02 -0.88845E-02  0.00000E+00  0.00000E+00  0.00000E+00    0.11154E+03  0.00000E+00  0.00000E+00 -0.24808E+00  0.17332E+00  0.30079E+00
  0.18000E-01  0.11215E+03    0.18000E-01 -0.85924E-02 -0.94076E-02  0.00000E+00  0.00000E+00  0.00000E+00    0.11214E+03  0.00000E+00  0.00000E+00 -0.24843E+00  0.17503E+00  0.30167E+00
  0.19000E-01  0.11274E+03    0.19000E-01 -0.90692E-02 -0.99308E-02  0.00000E+00  0.00000E+00  0.00000E+00    0.11274E+03  0.00000E+00  0.00000E+00 -0.24874E+00  0.17677E+00  0.30254E+00
  0.20000E-01  0.11334E+03    0.20000E-01 -0.95461E-02 -0.10454E-01  0.00000E+00  0.00000E+00  0.00000E+00    0.11334E+03  0.00000E+00  0.00000E+00 -0.24900E+00  0.17854E+00  0.30340E+00
  0.21000E-01  0.11393E+03    0.21000E-01 -0.10023E-01 -0.10977E-01  0.00000E+00  0.00000E+00  0.00000E+00    0.11393E+03  0.00000E+00  0.00000E+00 -0.24921E+00  0.18033E+00  0.30425E+00
  0.22000E-01  0.11452E+03    0.22000E-01 -0.10500E-01 -0.11500E-01  0.00000E+00  0.00000E+00  0.00000E+00    0.11451E+03  0.00000E+00  0.00000E+00 -0.24939E+00  0.18214E+00  0.30509E+00
  0.22999E-01  0.11510E+03    0.23000E-01 -0.10976E-01 -0.12024E-01  0.00000E+00  0.00000E+00  0.00000E+00    0.11510E+03  0.00000E+00  0.00000E+00 -0.24952E+00  0.18398E+00  0.30592E+00
  0.23999E-01  0.11568E+03    0.24000E-01 -0.11453E-01 -0.12547E-01  0.00000E+00  0.00000E+00  0.00000E+00    0.11568E+03  0.00000E+00  0.00000E+00 -0.24961E+00  0.18584E+00  0.30673E+00
  0.24999E-01  0.11626E+03    0.25000E-01 -0.11930E-01 -0.13070E-01  0.00000E+00  0.00000E+00  0.00000E+00    0.11626E+03  0.00000E+00  0.00000E+00 -0.24965E+00  0.18772E+00  0.30754E+00
  0.25999E-01  0.11683E+03    0.26000E-01 -0.12407E-01 -0.13593E-01  0.00000E+00  0.00000E+00  0.00000E+00    0.11683E+03  0.00000E+00  0.00000E+00 -0.24965E+00  0.18963E+00  0.30834E+00
  0.26999E-01  0.11740E+03    0.27000E-01 -0.12883E-01 -0.14117E-01  0.00000E+00  0.00000E+00  0.00000E+00    0.11740E+03  0.00000E+00  0.00000E+00 -0.24962E+00  0.19156E+00  0.30913E+00
  0.27999E-01  0.11797E+03    0.28000E-01 -0.13360E-01 -0.14640E-01  0.00000E+00  0.00000E+00  0.00000E+00    0.11797E+03  0.00000E+00  0.00000E+00 -0.24954E+00  0.19351E+00  0.30991E+00
  0.28999E-01  0.11853E+03    0.29000E-01 -0.13837E-01 -0.15163E-01  0.00000E+00  0.00000E+00  0.00000E+00    0.11853E+03  0.00000E+00  0.00000E+00 -0.24942E+00  0.19549E+00  0.31068E+00
  0.29999E-01  0.11909E+03    0.30000E-01 -0.14313E-01 -0.15687E-01  0.00000E+00  0.00000E+00  0.00000E+00    0.11909E+03  0.00000E+00  0.00000E+00 -0.24926E+00  0.19749E+00  0.31145E+00
  0.30999E-01  0.11965E+03    0.31000E-01 -0.14790E-01 -0.16210E-01  0.00000E+00  0.00000E+00  0.00000E+00    0.11965E+03  0.00000E+00  0.00000E+00 -0.24907E+00  0.19950E+00  0.31220E+00
  0.31999E-01  0.12020E+03    0.32000E-01 -0.15266E-01 -0.16734E-01  0.00000E+00  0.00000E+00  0.00000E+00    0.12020E+03  0.00000E+00  0.00000E+00 -0.24883E+00  0.20155E+00  0.31295E+00
  0.32999E-01  0.12076E+03    0.33000E-01 -0.15743E-01 -0.17257E-01  0.00000E+00  0.00000E+00  0.00000E+00    0.12075E+03  0.00000E+00  0.00000E+00 -0.24856E+00  0.20361E+00  0.31369E+00
  0.33999E-01  0.12130E+03    0.34000E-01 -0.16219E-01 -0.17781E-01  0.00000E+00  0.00000E+00  0.00000E+00    0.12130E+03  0.00000E+00  0.00000E+00 -0.24825E+00  0.20570E+00  0.31442E+00
  0.34999E-01  0.12185E+03    0.35000E-01 -0.16696E-01 -0.18304E-01  0.00000E+00  0.00000E+00  0.00000E+00    0.12184E+03  0.00000E+00  0.00000E+00 -0.24790E+00  0.20781E+00  0.31515E+00
  0.35999E-01  0.12239E+03    0.36000E-01 -0.17172E-01 -0.18828E-01  0.00000E+00  0.00000E+00  0.00000E+00    0.12238E+03  0.00000E+00  0.00000E+00 -0.24751E+00  0.20994E+00  0.31587E+00
  0.36999E-01  0.12292E+03    0.37000E-01 -0.17649E-01 -0.19351E-01  0.00000E+00  0.00000E+00  0.00000E+00    0.12292E+03  0.00000E+00  0.00000E+00 -0.24709E+00  0.21209E+00  0.31659E+00
  0.37999E-01  0.12342E+03    0.38000E-01 -0.18125E-01 -0.19875E-01  0.00000E+00  0.00000E+00  0.00000E+00    0.12342E+03  0.00000E+00  0.00000E+00 -0.25002E+00  0.21259E+00  0.31728E+00
  0.38999E-01  0.12399E+03    0.39000E-01 -0.18602E-01 -0.20398E-01  0.00000E+00  0.00000E+00  0.00000E+00    0.12398E+03  0.00000E+00  0.00000E+00 -0.24635E+00  0.21630E+00  0.31796E+00
  0.39999E-01  0.12448E+03    0.40000E-01 -0.19078E-01 -0.20922E-01  0.00000E+00  0.00000E+00  0.00000E+00    0.12448E+03  0.00000E+00  0.00000E+00 -0.24902E+00  0.21694E+00  0.31869E+00
  0.40999E-01  0.12501E+03    0.41000E-01 -0.19554E-01 -0.21446E-01  0.00000E+00  0.00000E+00  0.00000E+00    0.12500E+03  0.00000E+00  0.00000E+00 -0.24854E+00  0.21906E+00  0.31939E+00
  0.41999E-01  0.12553E+03    0.42000E-01 -0.20031E-01 -0.21969E-01  0.00000E+00  0.00000E+00  0.00000E+00    0.12553E+03  0.00000E+00  0.00000E+00 -0.24795E+00  0.22129E+00  0.32008E+00
  0.42999E-01  0.12605E+03    0.43000E-01 -0.20507E-01 -0.22493E-01  0.00000E+00  0.00000E+00  0.00000E+00    0.12604E+03  0.00000E+00  0.00000E+00 -0.24733E+00  0.22353E+00  0.32077E+00
  0.43999E-01  0.12656E+03    0.44000E-01 -0.20983E-01 -0.23017E-01  0.00000E+00  0.00000E+00  0.00000E+00    0.12656E+03  0.00000E+00  0.00000E+00 -0.24667E+00  0.22580E+00  0.32145E+00
  0.44999E-01  0.12708E+03    0.45000E-01 -0.21459E-01 -0.23541E-01  0.00000E+00  0.00000E+00  0.00000E+00    0.12708E+03  0.00000E+00  0.00000E+00 -0.24597E+00  0.22809E+00  0.32213E+00
  0.45999E-01  0.12759E+03    0.46000E-01 -0.21936E-01 -0.24064E-01  0.00000E+00  0.00000E+00  0.00000E+00    0.12759E+03  0.00000E+00  0.00000E+00 -0.24524E+00  0.23039E+00  0.32281E+00
  0.46999E-01  0.12810E+03    0.47000E-01 -0.22412E-01 -0.24588E-01  0.00000E+00  0.00000E+00  0.00000E+00    0.12809E+03  0.00000E+00  0.00000E+00 -0.24448E+00  0.23272E+00  0.32348E+00
  0.47999E-01  0.12862E+03    0.48000E-01 -0.22888E-01 -0.25112E-01  0.00000E+00  0.00000E+00  0.00000E+00    0.12862E+03  0.00000E+00  0.00000E+00 -0.24044E+00  0.23677E+00  0.32403E+00
  0.48999E-01  0.12910E+03    0.49000E-01 -0.23364E-01 -0.25636E-01  0.00000E+00  0.00000E+00  0.00000E+00    0.12910E+03  0.00000E+00  0.00000E+00 -0.24280E+00  0.23751E+00  0.32482E+00
  0.49999E-01  0.12963E+03    0.50000E-01 -0.23840E-01 -0.26160E-01  0.00000E+00  0.00000E+00  0.00000E+00    0.12962E+03  0.00000E+00  0.00000E+00 -0.23877E+00  0.24155E+00  0.32535E+00
  0.50999E-01  0.13010E+03    0.51000E-01 -0.24316E-01 -0.26684E-01  0.00000E+00  0.00000E+00  0.00000E+00    0.13010E+03  0.00000E+00  0.00000E+00 -0.24105E+00  0.24228E+00  0.32614E+00
  0.51999E-01  0.13061E+03    0.52000E-01 -0.24792E-01 -0.27208E-01  0.00000E+00  0.00000E+00  0.00000E+00    0.13061E+03  0.00000E+00  0.00000E+00 -0.23696E+00  0.24641E+00  0.32666E+00
  0.52999E-01  0.13108E+03    0.53000E-01 -0.25268E-01 -0.27732E-01  0.00000E+00  0.00000E+00  0.00000E+00    0.13108E+03  0.00000E+00  0.00000E+00 -0.23918E+00  0.24714E+00  0.32746E+00
  0.53999E-01  0.13156E+03    0.54000E-01 -0.25744E-01 -0.28256E-01  0.00000E+00  0.00000E+00  0.00000E+00    0.13156E+03  0.00000E+00  0.00000E+00 -0.23865E+00  0.24934E+00  0.32808E+00
  0.54999E-01  0.13206E+03    0.55000E-01 -0.26220E-01 -0.28780E-01  0.00000E+00  0.00000E+00  0.00000E+00    0.13206E+03  0.00000E+00  0.00000E+00 -0.23728E+00  0.25197E+00  0.32875E+00
  0.55999E-01  0.13253E+03    0.56000E-01 -0.26696E-01 -0.29304E-01  0.00000E+00  0.00000E+00  0.00000E+00    0.13252E+03  0.00000E+00  0.00000E+00 -0.23661E+00  0.25429E+00  0.32938E+00
  0.56999E-01  0.13302E+03    0.57000E-01 -0.27172E-01 -0.29828E-01  0.00000E+00  0.00000E+00  0.00000E+00    0.13302E+03  0.00000E+00  0.00000E+00 -0.23517E+00  0.25696E+00  0.33005E+00
  0.57999E-01  0.13348E+03    0.58000E-01 -0.27648E-01 -0.30352E-01  0.00000E+00  0.00000E+00  0.00000E+00    0.13348E+03  0.00000E+00  0.00000E+00 -0.23444E+00  0.25931E+00  0.33068E+00
  0.58999E-01  0.13397E+03    0.59000E-01 -0.28124E-01 -0.30876E-01  0.00000E+00  0.00000E+00  0.00000E+00    0.13397E+03  0.00000E+00  0.00000E+00 -0.23295E+00  0.26202E+00  0.33134E+00
  0.59999E-01  0.13443E+03    0.60000E-01 -0.28600E-01 -0.31400E-01  0.00000E+00  0.00000E+00  0.00000E+00    0.13443E+03  0.00000E+00  0.00000E+00 -0.23216E+00  0.26440E+00  0.33198E+00
  0.60999E-01  0.13491E+03    0.61000E-01 -0.29075E-01 -0.31925E-01  0.00000E+00  0.00000E+00  0.00000E+00    0.13491E+03  0.00000E+00  0.00000E+00 -0.23061E+00  0.26714E+00  0.33263E+00
  0.61999E-01  0.13537E+03    0.62000E-01 -0.29551E-01 -0.32449E-01  0.00000E+00  0.00000E+00  0.00000E+00    0.13537E+03  0.00000E+00  0.00000E+00 -0.22978E+00  0.26956E+00  0.33327E+00
  0.62999E-01  0.13583E+03    0.63000E-01 -0.30027E-01 -0.32973E-01  0.00000E+00  0.00000E+00  0.00000E+00    0.13583E+03  0.00000E+00  0.00000E+00 -0.22861E+00  0.27214E+00  0.33391E+00
  0.63999E-01  0.13629E+03    0.64000E-01 -0.30503E-01 -0.33497E-01  0.00000E+00  0.00000E+00  0.00000E+00    0.13629E+03  0.00000E+00  0.00000E+00 -0.22736E+00  0.27475E+00  0.33455E+00
  0.64999E-01  0.13675E+03    0.65000E-01 -0.30978E-01 -0.34022E-01  0.00000E+00  0.00000E+00  0.00000E+00    0.13675E+03  0.00000E+00  0.00000E+00 -0.22607E+00  0.27739E+00  0.33520E+00
  0.65999E-01  0.13721E+03    0.66000E-01 -0.31454E-01 -0.34546E-01  0.00000E+00  0.00000E+00  0.00000E+00    0.13721E+03  0.00000E+00  0.00000E+00 -0.22475E+00  0.28005E+00  0.33585E+00
  0.66999E-01  0.13766E+03    0.67000E-01 -0.31930E-01 -0.35070E-01  0.00000E+00  0.00000E+00  0.00000E+00    0.13766E+03  0.00000E+00  0.00000E+00 -0.22341E+00  0.28272E+00  0.33650E+00
  0.67999E-01  0.13812E+03    0.68000E-01 -0.32405E-01 -0.35595E-01  0.00000E+00  0.00000E+00  0.00000E+00    0.13811E+03  0.00000E+00  0.00000E+00 -0.22204E+00  0.28541E+00  0.33715E+00
  0.68999E-01  0.13857E+03    0.69000E-01 -0.32881E-01 -0.36119E-01  0.00000E+00  0.00000E+00  0.00000E+00    0.13856E+03  0.00000E+00  0.00000E+00 -0.22065E+00  0.28811E+00  0.33781E+00
  0.69999E-01  0.13901E+03    0.70000E-01 -0.33357E-01 -0.36643E-01  0.00000E+00  0.00000E+00  0.00000E+00    0.13901E+03  0.00000E+00  0.00000E+00 -0.21923E+00  0.29083E+00  0.33846E+00
  0.70999E-01  0.13946E+03    0.71000E-01 -0.33832E-01 -0.37168E-01  0.00000E+00  0.00000E+00  0.00000E+00    0.13945E+03  0.00000E+00  0.00000E+00 -0.21778E+00  0.29357E+00  0.33912E+00
  0.71999E-01  0.13990E+03    0.72000E-01 -0.34308E-01 -0.37692E-01  0.00000E+00  0.00000E+00  0.00000E+00    0.13990E+03  0.00000E+00  0.00000E+00 -0.21631E+00  0.29632E+00  0.33978E+00
  0.72998E-01  0.14034E+03    0.73000E-01 -0.34783E-01 -0.38217E-01  0.00000E+00  0.00000E+00  0.00000E+00    0.14034E+03  0.00000E+00  0.00000E+00 -0.21482E+00  0.29909E+00  0.34045E+00
  0.73998E-01  0.14078E+03    0.74000E-01 -0.35259E-01 -0.38741E-01  0.00000E+00  0.00000E+00  0.00000E+00    0.14077E+03  0.00000E+00  0.00000E+00 -0.21331E+00  0.30188E+00  0.34112E+00
  0.74998E-01  0.14121E+03    0.75000E-01 -0.35734E-01 -0.39266E-01  0.00000E+00  0.00000E+00  0.00000E+00    0.14121E+03  0.00000E+00  0.00000E+00 -0.21177E+00  0.30469E+00  0.34179E+00
  0.75998E-01  0.14165E+03    0.76000E-01 -0.36209E-01 -0.39791E-01  0.00000E+00  0.00000E+00  0.00000E+00    0.14164E+03  0.00000E+00  0.00000E+00 -0.21020E+00  0.30751E+00  0.34247E+00
  0.76998E-01  0.14208E+03    0.77000E-01 -0.36685E-01 -0.40315E-01  0.00000E+00  0.00000E+00  0.00000E+00    0.14207E+03  0.00000E+00  0.00000E+00 -0.20861E+00  0.31035E+00  0.34316E+00
  0.77998E-01  0.14251E+03    0.78000E-01 -0.37160E-01 -0.40840E-01  0.00000E+00  0.00000E+00  0.00000E+00    0.14250E+03  0.00000E+00  0.00000E+00 -0.20700E+00  0.31320E+00  0.34385E+00
  0.78998E-01  0.14293E+03    0.79000E-01 -0.37635E-01 -0.41365E-01  0.00000E+00  0.00000E+00  0.00000E+00    0.14293E+03  0.00000E+00  0.00000E+00 -0.19772E+00  0.31956E+00  0.34459E+00
  0.79998E-01  0.14333E+03    0.80000E-01 -0.38111E-01 -0.41889E-01  0.00000E+00  0.00000E+00  0.00000E+00    0.14333E+03  0.00000E+00  0.00000E+00 -0.19806E+00  0.32205E+00  0.34537E+00
  0.80998E-01  0.14374E+03    0.81000E-01 -0.38586E-01 -0.42414E-01  0.00000E+00  0.00000E+00  0.00000E+00    0.14374E+03  0.00000E+00  0.00000E+00 -0.19607E+00  0.32507E+00  0.34611E+00
  0.81998E-01  0.14416E+03    0.82000E-01 -0.39061E-01 -0.42939E-01  0.00000E+00  0.00000E+00  0.00000E+00    0.14416E+03  0.00000E+00  0.00000E+00 -0.19436E+00  0.32802E+00  0.34684E+00
  0.82998E-01  0.14458E+03    0.83000E-01 -0.39537E-01 -0.43463E-01  0.00000E+00  0.00000E+00  0.00000E+00    0.14458E+03  0.00000E+00  0.00000E+00 -0.19264E+00  0.33099E+00  0.34756E+00
  0.83998E-01  0.14505E+03    0.84000E-01 -0.40012E-01 -0.43988E-01  0.00000E+00  0.00000E+00  0.00000E+00    0.14505E+03  0.00000E+00  0.00000E+00 -0.18916E+00  0.33468E+00  0.34821E+00
  0.84998E-01  0.14547E+03    0.85000E-01 -0.40487E-01 -0.44513E-01  0.00000E+00  0.00000E+00  0.00000E+00    0.14547E+03  0.00000E+00  0.00000E+00 -0.18785E+00  0.33759E+00  0.34893E+00
  0.85998E-01  0.14588E+03    0.86000E-01 -0.40962E-01 -0.45038E-01  0.00000E+00  0.00000E+00  0.00000E+00    0.14588E+03  0.00000E+00  0.00000E+00 -0.18606E+00  0.34062E+00  0.34967E+00
  0.86998E-01  0.14629E+03    0.87000E-01 -0.41437E-01 -0.45563E-01  0.00000E+00  0.00000E+00  0.00000E+00    0.14629E+03  0.00000E+00  0.00000E+00 -0.18425E+00  0.34368E+00  0.35043E+00
  0.87998E-01  0.14670E+03    0.88000E-01 -0.41912E-01 -0.46088E-01  0.00000E+00  0.00000E+00  0.00000E+00    0.14670E+03  0.00000E+00  0.00000E+00 -0.18242E+00  0.34675E+00  0.35120E+00
  0.88998E-01  0.14710E+03    0.89000E-01 -0.42387E-01 -0.46613E-01  0.00000E+00  0.00000E+00  0.00000E+00    0.14710E+03  0.00000E+00  0.00000E+00 -0.18057E+00  0.34984E+00  0.35199E+00
  0.89998E-01  0.14751E+03    0.90000E-01 -0.42862E-01 -0.47138E-01  0.00000E+00  0.00000E+00  0.00000E+00    0.14750E+03  0.00000E+00  0.00000E+00 -0.17870E+00  0.35294E+00  0.35278E+00
  0.90998E-01  0.14791E+03    0.91000E-01 -0.43337E-01 -0.47663E-01  0.00000E+00  0.00000E+00  0.00000E+00    0.14790E+03  0.00000E+00  0.00000E+00 -0.17681E+00  0.35607E+00  0.35358E+00
  0.91998E-01  0.14831E+03    0.92000E-01 -0.43812E-01 -0.48188E-01  0.00000E+00  0.00000E+00  0.00000E+00    0.14830E+03  0.00000E+00  0.00000E+00 -0.17490E+00  0.35922E+00  0.35439E+00
  0.92998E-01  0.14870E+03    0.93000E-01 -0.44287E-01 -0.48713E-01  0.00000E+00  0.00000E+00  0.00000E+00    0.14870E+03  0.00000E+00  0.00000E+00 -0.17298E+00  0.36238E+00  0.35522E+00
  0.93998E-01  0.14910E+03    0.94000E-01 -0.44762E-01 -0.49238E-01  0.00000E+00  0.00000E+00  0.00000E+00    0.14909E+03  0.00000E+00  0.00000E+00 -0.17103E+00  0.36557E+00  0.35606E+00
  0.94998E-01  0.14949E+03    0.95000E-01 -0.45237E-01 -0.49763E-01  0.00000E+00  0.00000E+00  0.00000E+00    0.14949E+03  0.00000E+00  0.00000E+00 -0.16907E+00  0.36878E+00  0.35691E+00
  0.95998E-01  0.14988E+03    0.96000E-01 -0.45712E-01 -0.50288E-01  0.00000E+00  0.00000E+00  0.00000E+00    0.14988E+03  0.00000E+00  0.00000E+00 -0.16709E+00  0.37201E+00  0.35778E+00
  0.96998E-01  0.15027E+03    0.97000E-01 -0.46187E-01 -0.50813E-01  0.00000E+00  0.00000E+00  0.00000E+00    0.15027E+03  0.00000E+00  0.00000E+00 -0.16509E+00  0.37525E+00  0.35866E+00
  0.97998E-01  0.15066E+03    0.98000E-01 -0.46661E-01 -0.51339E-01  0.00000E+00  0.00000E+00  0.00000E+00    0.15065E+03  0.00000E+00  0.00000E+00 -0.16308E+00  0.37852E+00  0.35955E+00
  0.98998E-01  0.15104E+03    0.99000E-01 -0.47136E-01 -0.51864E-01  0.00000E+00  0.00000E+00  0.00000E+00    0.15104E+03  0.00000E+00  0.00000E+00 -0.16105E+00  0.38181E+00  0.36046E+00
  0.99998E-01  0.15142E+03    0.10000E+00 -0.47611E-01 -0.52389E-01  0.00000E+00  0.00000E+00  0.00000E+00    0.15142E+03  0.00000E+00  0.00000E+00 -0.15900E+00  0.38512E+00  0.36138E+00
