          Evm          Svm            E11          E22          E33          E23          E13          E12         SCAU11       SCAU22       SCAU33       SCAU23       SCAU13       SCAU12      TEMP
  0.00000E+00  0.95613E+02    0.00000E+00  0.00000E+00  0.00000E+00  0.00000E+00  0.00000E+00  0.00000E+00    0.95610E+02  0.00000E+00  0.00000E+00 -0.22175E+00  0.13748E+00  0.26419E+00
  0.99998E-03  0.96244E+02    0.10000E-02 -0.47967E-03 -0.52033E-03  0.00000E+00  0.00000E+00  0.00000E+00    0.96242E+02  0.00000E+00  0.00000E+00 -0.22674E+00  0.14081E+00  0.26772E+00
  0.20000E-02  0.96840E+02    0.20000E-02 -0.95784E-03 -0.10422E-02  0.00000E+00  0.00000E+00  0.00000E+00    0.96838E+02  0.00000E+00  0.00000E+00 -0.22712E+00  0.14196E+00  0.27008E+00
  0.29999E-02  0.97498E+02    0.30000E-02 -0.14356E-02 -0.15644E-02  0.00000E+00  0.00000E+00  0.00000E+00    0.97496E+02  0.00000E+00  0.00000E+00 -0.22835E+00  0.14324E+00  0.27171E+00
  0.39999E-02  0.98154E+02    0.40000E-02 -0.19132E-02 -0.20868E-02  0.00000E+00  0.00000E+00  0.00000E+00    0.98152E+02  0.00000E+00  0.00000E+00 -0.22942E+00  0.14454E+00  0.27306E+00
  0.49999E-02  0.98794E+02    0.50000E-02 -0.23906E-02 -0.26094E-02  0.00000E+00  0.00000E+00  0.00000E+00    0.98792E+02  0.00000E+00  0.00000E+00 -0.22828E+00  0.14680E+00  0.27431E+00
  0.59999E-02  0.99451E+02    0.60000E-02 -0.28678E-02 -0.31322E-02  0.00000E+00  0.00000E+00  0.00000E+00    0.99448E+02  0.00000E+00  0.00000E+00 -0.22926E+00  0.14831E+00  0.27552E+00
  0.69998E-02  0.10009E+03    0.70000E-02 -0.33451E-02 -0.36549E-02  0.00000E+00  0.00000E+00  0.00000E+00    0.10009E+03  0.00000E+00  0.00000E+00 -0.23018E+00  0.14972E+00  0.27664E+00
  0.79998E-02  0.10073E+03    0.80000E-02 -0.38222E-02 -0.41778E-02  0.00000E+00  0.00000E+00  0.00000E+00    0.10073E+03  0.00000E+00  0.00000E+00 -0.23104E+00  0.15115E+00  0.27773E+00
  0.89998E-02  0.10137E+03    0.90000E-02 -0.42994E-02 -0.47006E-02  0.00000E+00  0.00000E+00  0.00000E+00    0.10137E+03  0.00000E+00  0.00000E+00 -0.23185E+00  0.15260E+00  0.27879E+00
  0.99998E-02  0.10200E+03    0.10000E-01 -0.47764E-02 -0.52236E-02  0.00000E+00  0.00000E+00  0.00000E+00    0.10200E+03  0.00000E+00  0.00000E+00 -0.23262E+00  0.15408E+00  0.27982E+00
  0.11000E-01  0.10263E+03    0.11000E-01 -0.52535E-02 -0.57465E-02  0.00000E+00  0.00000E+00  0.00000E+00    0.10263E+03  0.00000E+00  0.00000E+00 -0.23334E+00  0.15559E+00  0.28084E+00
  0.12000E-01  0.10325E+03    0.12000E-01 -0.57305E-02 -0.62695E-02  0.00000E+00  0.00000E+00  0.00000E+00    0.10325E+03  0.00000E+00  0.00000E+00 -0.23401E+00  0.15711E+00  0.28183E+00
  0.13000E-01  0.10387E+03    0.13000E-01 -0.62075E-02 -0.67925E-02  0.00000E+00  0.00000E+00  0.00000E+00    0.10387E+03  0.00000E+00  0.00000E+00 -0.23464E+00  0.15867E+00  0.28281E+00
  0.14000E-01  0.10449E+03    0.14000E-01 -0.66845E-02 -0.73155E-02  0.00000E+00  0.00000E+00  0.00000E+00    0.10449E+03  0.00000E+00  0.00000E+00 -0.23521E+00  0.16025E+00  0.28378E+00
  0.15000E-01  0.10510E+03    0.15000E-01 -0.71615E-02 -0.78385E-02  0.00000E+00  0.00000E+00  0.00000E+00    0.10510E+03  0.00000E+00  0.00000E+00 -0.23575E+00  0.16185E+00  0.28473E+00
  0.16000E-01  0.10571E+03    0.16000E-01 -0.76384E-02 -0.83616E-02  0.00000E+00  0.00000E+00  0.00000E+00    0.10571E+03  0.00000E+00  0.00000E+00 -0.23624E+00  0.16348E+00  0.28567E+00
  0.17000E-01  0.10632E+03    0.17000E-01 -0.81153E-02 -0.88847E-02  0.00000E+00  0.00000E+00  0.00000E+00    0.10632E+03  0.00000E+00  0.00000E+00 -0.23668E+00  0.16513E+00  0.28659E+00
  0.18000E-01  0.10692E+03    0.18000E-01 -0.85922E-02 -0.94078E-02  0.00000E+00  0.00000E+00  0.00000E+00    0.10692E+03  0.00000E+00  0.00000E+00 -0.23708E+00  0.16681E+00  0.28750E+00
  0.19000E-01  0.10752E+03    0.19000E-01 -0.90691E-02 -0.99309E-02  0.00000E+00  0.00000E+00  0.00000E+00    0.10752E+03  0.00000E+00  0.00000E+00 -0.23744E+00  0.16850E+00  0.28840E+00
  0.20000E-01  0.10811E+03    0.20000E-01 -0.95459E-02 -0.10454E-01  0.00000E+00  0.00000E+00  0.00000E+00    0.10811E+03  0.00000E+00  0.00000E+00 -0.23775E+00  0.17023E+00  0.28929E+00
  0.21000E-01  0.10870E+03    0.21000E-01 -0.10023E-01 -0.10977E-01  0.00000E+00  0.00000E+00  0.00000E+00    0.10870E+03  0.00000E+00  0.00000E+00 -0.23802E+00  0.17197E+00  0.29017E+00
  0.22000E-01  0.10929E+03    0.22000E-01 -0.10500E-01 -0.11500E-01  0.00000E+00  0.00000E+00  0.00000E+00    0.10929E+03  0.00000E+00  0.00000E+00 -0.23825E+00  0.17374E+00  0.29104E+00
  0.22999E-01  0.10988E+03    0.23000E-01 -0.10976E-01 -0.12024E-01  0.00000E+00  0.00000E+00  0.00000E+00    0.10987E+03  0.00000E+00  0.00000E+00 -0.23844E+00  0.17554E+00  0.29189E+00
  0.23999E-01  0.11046E+03    0.24000E-01 -0.11453E-01 -0.12547E-01  0.00000E+00  0.00000E+00  0.00000E+00    0.11045E+03  0.00000E+00  0.00000E+00 -0.23858E+00  0.17735E+00  0.29274E+00
  0.24999E-01  0.11103E+03    0.25000E-01 -0.11930E-01 -0.13070E-01  0.00000E+00  0.00000E+00  0.00000E+00    0.11103E+03  0.00000E+00  0.00000E+00 -0.23868E+00  0.17919E+00  0.29357E+00
  0.25999E-01  0.11161E+03    0.26000E-01 -0.12406E-01 -0.13594E-01  0.00000E+00  0.00000E+00  0.00000E+00    0.11160E+03  0.00000E+00  0.00000E+00 -0.23874E+00  0.18106E+00  0.29440E+00
  0.26999E-01  0.11218E+03    0.27000E-01 -0.12883E-01 -0.14117E-01  0.00000E+00  0.00000E+00  0.00000E+00    0.11217E+03  0.00000E+00  0.00000E+00 -0.23876E+00  0.18294E+00  0.29522E+00
  0.27999E-01  0.11274E+03    0.28000E-01 -0.13360E-01 -0.14640E-01  0.00000E+00  0.00000E+00  0.00000E+00    0.11274E+03  0.00000E+00  0.00000E+00 -0.23874E+00  0.18484E+00  0.29603E+00
  0.28999E-01  0.11331E+03    0.29000E-01 -0.13836E-01 -0.15164E-01  0.00000E+00  0.00000E+00  0.00000E+00    0.11330E+03  0.00000E+00  0.00000E+00 -0.23869E+00  0.18677E+00  0.29683E+00
  0.29999E-01  0.11387E+03    0.30000E-01 -0.14313E-01 -0.15687E-01  0.00000E+00  0.00000E+00  0.00000E+00    0.11386E+03  0.00000E+00  0.00000E+00 -0.23859E+00  0.18872E+00  0.29762E+00
  0.30999E-01  0.11442E+03    0.31000E-01 -0.14790E-01 -0.16210E-01  0.00000E+00  0.00000E+00  0.00000E+00    0.11442E+03  0.00000E+00  0.00000E+00 -0.23844E+00  0.19070E+00  0.29840E+00
  0.31999E-01  0.11498E+03    0.32000E-01 -0.15266E-01 -0.16734E-01  0.00000E+00  0.00000E+00  0.00000E+00    0.11497E+03  0.00000E+00  0.00000E+00 -0.23827E+00  0.19269E+00  0.29918E+00
  0.32999E-01  0.11553E+03    0.33000E-01 -0.15743E-01 -0.17257E-01  0.00000E+00  0.00000E+00  0.00000E+00    0.11552E+03  0.00000E+00  0.00000E+00 -0.23806E+00  0.19471E+00  0.29995E+00
  0.33999E-01  0.11607E+03    0.34000E-01 -0.16219E-01 -0.17781E-01  0.00000E+00  0.00000E+00  0.00000E+00    0.11607E+03  0.00000E+00  0.00000E+00 -0.23781E+00  0.19674E+00  0.30071E+00
  0.34999E-01  0.11662E+03    0.35000E-01 -0.16696E-01 -0.18304E-01  0.00000E+00  0.00000E+00  0.00000E+00    0.11662E+03  0.00000E+00  0.00000E+00 -0.23752E+00  0.19880E+00  0.30146E+00
  0.35999E-01  0.11716E+03    0.36000E-01 -0.17172E-01 -0.18828E-01  0.00000E+00  0.00000E+00  0.00000E+00    0.11716E+03  0.00000E+00  0.00000E+00 -0.23720E+00  0.20088E+00  0.30221E+00
  0.36999E-01  0.11770E+03    0.37000E-01 -0.17649E-01 -0.19351E-01  0.00000E+00  0.00000E+00  0.00000E+00    0.11769E+03  0.00000E+00  0.00000E+00 -0.23684E+00  0.20297E+00  0.30295E+00
  0.37999E-01  0.11823E+03    0.38000E-01 -0.18125E-01 -0.19875E-01  0.00000E+00  0.00000E+00  0.00000E+00    0.11823E+03  0.00000E+00  0.00000E+00 -0.23644E+00  0.20509E+00  0.30368E+00
  0.38999E-01  0.11876E+03    0.39000E-01 -0.18601E-01 -0.20399E-01  0.00000E+00  0.00000E+00  0.00000E+00    0.11876E+03  0.00000E+00  0.00000E+00 -0.23601E+00  0.20723E+00  0.30441E+00
  0.39999E-01  0.11929E+03    0.40000E-01 -0.19078E-01 -0.20922E-01  0.00000E+00  0.00000E+00  0.00000E+00    0.11929E+03  0.00000E+00  0.00000E+00 -0.23555E+00  0.20939E+00  0.30513E+00
  0.40999E-01  0.11982E+03    0.41000E-01 -0.19554E-01 -0.21446E-01  0.00000E+00  0.00000E+00  0.00000E+00    0.11981E+03  0.00000E+00  0.00000E+00 -0.23505E+00  0.21157E+00  0.30585E+00
  0.41999E-01  0.12034E+03    0.42000E-01 -0.20030E-01 -0.21970E-01  0.00000E+00  0.00000E+00  0.00000E+00    0.12034E+03  0.00000E+00  0.00000E+00 -0.23451E+00  0.21377E+00  0.30656E+00
  0.42999E-01  0.12082E+03    0.43000E-01 -0.20507E-01 -0.22493E-01  0.00000E+00  0.00000E+00  0.00000E+00    0.12082E+03  0.00000E+00  0.00000E+00 -0.23734E+00  0.21423E+00  0.30727E+00
  0.43999E-01  0.12137E+03    0.44000E-01 -0.20983E-01 -0.23017E-01  0.00000E+00  0.00000E+00  0.00000E+00    0.12137E+03  0.00000E+00  0.00000E+00 -0.23357E+00  0.21806E+00  0.30793E+00
  0.44999E-01  0.12185E+03    0.45000E-01 -0.21459E-01 -0.23541E-01  0.00000E+00  0.00000E+00  0.00000E+00    0.12185E+03  0.00000E+00  0.00000E+00 -0.23613E+00  0.21867E+00  0.30868E+00
  0.45999E-01  0.12236E+03    0.46000E-01 -0.21935E-01 -0.24065E-01  0.00000E+00  0.00000E+00  0.00000E+00    0.12236E+03  0.00000E+00  0.00000E+00 -0.23555E+00  0.22083E+00  0.30938E+00
  0.46999E-01  0.12287E+03    0.47000E-01 -0.22412E-01 -0.24588E-01  0.00000E+00  0.00000E+00  0.00000E+00    0.12286E+03  0.00000E+00  0.00000E+00 -0.23486E+00  0.22309E+00  0.31008E+00
  0.47999E-01  0.12337E+03    0.48000E-01 -0.22888E-01 -0.25112E-01  0.00000E+00  0.00000E+00  0.00000E+00    0.12337E+03  0.00000E+00  0.00000E+00 -0.23414E+00  0.22538E+00  0.31077E+00
  0.48999E-01  0.12387E+03    0.49000E-01 -0.23364E-01 -0.25636E-01  0.00000E+00  0.00000E+00  0.00000E+00    0.12387E+03  0.00000E+00  0.00000E+00 -0.23338E+00  0.22768E+00  0.31145E+00
  0.49999E-01  0.12437E+03    0.50000E-01 -0.23840E-01 -0.26160E-01  0.00000E+00  0.00000E+00  0.00000E+00    0.12437E+03  0.00000E+00  0.00000E+00 -0.23259E+00  0.23000E+00  0.31214E+00
  0.50999E-01  0.12487E+03    0.51000E-01 -0.24316E-01 -0.26684E-01  0.00000E+00  0.00000E+00  0.00000E+00    0.12487E+03  0.00000E+00  0.00000E+00 -0.23177E+00  0.23234E+00  0.31282E+00
  0.51999E-01  0.12536E+03    0.52000E-01 -0.24792E-01 -0.27208E-01  0.00000E+00  0.00000E+00  0.00000E+00    0.12536E+03  0.00000E+00  0.00000E+00 -0.23092E+00  0.23470E+00  0.31350E+00
  0.52999E-01  0.12587E+03    0.53000E-01 -0.25268E-01 -0.27732E-01  0.00000E+00  0.00000E+00  0.00000E+00    0.12587E+03  0.00000E+00  0.00000E+00 -0.22680E+00  0.23885E+00  0.31404E+00
  0.53999E-01  0.12634E+03    0.54000E-01 -0.25744E-01 -0.28256E-01  0.00000E+00  0.00000E+00  0.00000E+00    0.12634E+03  0.00000E+00  0.00000E+00 -0.22907E+00  0.23955E+00  0.31485E+00
  0.54999E-01  0.12685E+03    0.55000E-01 -0.26220E-01 -0.28780E-01  0.00000E+00  0.00000E+00  0.00000E+00    0.12684E+03  0.00000E+00  0.00000E+00 -0.22497E+00  0.24369E+00  0.31537E+00
  0.55999E-01  0.12731E+03    0.56000E-01 -0.26696E-01 -0.29304E-01  0.00000E+00  0.00000E+00  0.00000E+00    0.12730E+03  0.00000E+00  0.00000E+00 -0.22716E+00  0.24438E+00  0.31620E+00
  0.56999E-01  0.12778E+03    0.57000E-01 -0.27172E-01 -0.29828E-01  0.00000E+00  0.00000E+00  0.00000E+00    0.12777E+03  0.00000E+00  0.00000E+00 -0.22661E+00  0.24657E+00  0.31684E+00
  0.57999E-01  0.12827E+03    0.58000E-01 -0.27648E-01 -0.30352E-01  0.00000E+00  0.00000E+00  0.00000E+00    0.12826E+03  0.00000E+00  0.00000E+00 -0.22523E+00  0.24919E+00  0.31752E+00
  0.58999E-01  0.12873E+03    0.59000E-01 -0.28124E-01 -0.30876E-01  0.00000E+00  0.00000E+00  0.00000E+00    0.12872E+03  0.00000E+00  0.00000E+00 -0.22454E+00  0.25150E+00  0.31816E+00
  0.59999E-01  0.12921E+03    0.60000E-01 -0.28600E-01 -0.31400E-01  0.00000E+00  0.00000E+00  0.00000E+00    0.12921E+03  0.00000E+00  0.00000E+00 -0.22308E+00  0.25416E+00  0.31885E+00
  0.60999E-01  0.12967E+03    0.61000E-01 -0.29075E-01 -0.31925E-01  0.00000E+00  0.00000E+00  0.00000E+00    0.12967E+03  0.00000E+00  0.00000E+00 -0.22235E+00  0.25650E+00  0.31950E+00
  0.61999E-01  0.13015E+03    0.62000E-01 -0.29551E-01 -0.32449E-01  0.00000E+00  0.00000E+00  0.00000E+00    0.13015E+03  0.00000E+00  0.00000E+00 -0.22084E+00  0.25919E+00  0.32018E+00
  0.62999E-01  0.13060E+03    0.63000E-01 -0.30027E-01 -0.32973E-01  0.00000E+00  0.00000E+00  0.00000E+00    0.13060E+03  0.00000E+00  0.00000E+00 -0.22005E+00  0.26156E+00  0.32083E+00
  0.63999E-01  0.13107E+03    0.64000E-01 -0.30503E-01 -0.33497E-01  0.00000E+00  0.00000E+00  0.00000E+00    0.13107E+03  0.00000E+00  0.00000E+00 -0.21848E+00  0.26430E+00  0.32151E+00
  0.64999E-01  0.13152E+03    0.65000E-01 -0.30978E-01 -0.34022E-01  0.00000E+00  0.00000E+00  0.00000E+00    0.13152E+03  0.00000E+00  0.00000E+00 -0.21764E+00  0.26669E+00  0.32216E+00
  0.65999E-01  0.13199E+03    0.66000E-01 -0.31454E-01 -0.34546E-01  0.00000E+00  0.00000E+00  0.00000E+00    0.13199E+03  0.00000E+00  0.00000E+00 -0.21602E+00  0.26946E+00  0.32283E+00
  0.66999E-01  0.13243E+03    0.67000E-01 -0.31930E-01 -0.35070E-01  0.00000E+00  0.00000E+00  0.00000E+00    0.13243E+03  0.00000E+00  0.00000E+00 -0.21513E+00  0.27189E+00  0.32349E+00
  0.67999E-01  0.13288E+03    0.68000E-01 -0.32405E-01 -0.35595E-01  0.00000E+00  0.00000E+00  0.00000E+00    0.13288E+03  0.00000E+00  0.00000E+00 -0.21390E+00  0.27449E+00  0.32416E+00
  0.68999E-01  0.13333E+03    0.69000E-01 -0.32881E-01 -0.36119E-01  0.00000E+00  0.00000E+00  0.00000E+00    0.13333E+03  0.00000E+00  0.00000E+00 -0.21259E+00  0.27712E+00  0.32483E+00
  0.69999E-01  0.13378E+03    0.70000E-01 -0.33357E-01 -0.36643E-01  0.00000E+00  0.00000E+00  0.00000E+00    0.13377E+03  0.00000E+00  0.00000E+00 -0.21125E+00  0.27978E+00  0.32550E+00
  0.70999E-01  0.13422E+03    0.71000E-01 -0.33832E-01 -0.37168E-01  0.00000E+00  0.00000E+00  0.00000E+00    0.13422E+03  0.00000E+00  0.00000E+00 -0.20988E+00  0.28245E+00  0.32617E+00
  0.71999E-01  0.13466E+03    0.72000E-01 -0.34308E-01 -0.37692E-01  0.00000E+00  0.00000E+00  0.00000E+00    0.13466E+03  0.00000E+00  0.00000E+00 -0.20849E+00  0.28513E+00  0.32685E+00
  0.72998E-01  0.13510E+03    0.73000E-01 -0.34783E-01 -0.38217E-01  0.00000E+00  0.00000E+00  0.00000E+00    0.13510E+03  0.00000E+00  0.00000E+00 -0.20707E+00  0.28784E+00  0.32753E+00
  0.73998E-01  0.13554E+03    0.74000E-01 -0.35259E-01 -0.38741E-01  0.00000E+00  0.00000E+00  0.00000E+00    0.13554E+03  0.00000E+00  0.00000E+00 -0.20563E+00  0.29056E+00  0.32822E+00
  0.74998E-01  0.13597E+03    0.75000E-01 -0.35734E-01 -0.39266E-01  0.00000E+00  0.00000E+00  0.00000E+00    0.13597E+03  0.00000E+00  0.00000E+00 -0.20416E+00  0.29330E+00  0.32890E+00
  0.75998E-01  0.13641E+03    0.76000E-01 -0.36209E-01 -0.39791E-01  0.00000E+00  0.00000E+00  0.00000E+00    0.13640E+03  0.00000E+00  0.00000E+00 -0.20268E+00  0.29605E+00  0.32959E+00
  0.76998E-01  0.13684E+03    0.77000E-01 -0.36685E-01 -0.40315E-01  0.00000E+00  0.00000E+00  0.00000E+00    0.13683E+03  0.00000E+00  0.00000E+00 -0.20116E+00  0.29882E+00  0.33029E+00
  0.77998E-01  0.13727E+03    0.78000E-01 -0.37160E-01 -0.40840E-01  0.00000E+00  0.00000E+00  0.00000E+00    0.13726E+03  0.00000E+00  0.00000E+00 -0.19963E+00  0.30161E+00  0.33099E+00
  0.78998E-01  0.13769E+03    0.79000E-01 -0.37636E-01 -0.41364E-01  0.00000E+00  0.00000E+00  0.00000E+00    0.13769E+03  0.00000E+00  0.00000E+00 -0.19807E+00  0.30441E+00  0.33170E+00
  0.79998E-01  0.13812E+03    0.80000E-01 -0.38111E-01 -0.41889E-01  0.00000E+00  0.00000E+00  0.00000E+00    0.13811E+03  0.00000E+00  0.00000E+00 -0.19649E+00  0.30723E+00  0.33241E+00
  0.80998E-01  0.13854E+03    0.81000E-01 -0.38586E-01 -0.42414E-01  0.00000E+00  0.00000E+00  0.00000E+00    0.13853E+03  0.00000E+00  0.00000E+00 -0.19489E+00  0.31007E+00  0.33313E+00
  0.81998E-01  0.13896E+03    0.82000E-01 -0.39061E-01 -0.42939E-01  0.00000E+00  0.00000E+00  0.00000E+00    0.13895E+03  0.00000E+00  0.00000E+00 -0.19326E+00  0.31293E+00  0.33385E+00
  0.82998E-01  0.13937E+03    0.83000E-01 -0.39537E-01 -0.43463E-01  0.00000E+00  0.00000E+00  0.00000E+00    0.13937E+03  0.00000E+00  0.00000E+00 -0.18400E+00  0.31937E+00  0.33462E+00
  0.83998E-01  0.13976E+03    0.84000E-01 -0.40012E-01 -0.43988E-01  0.00000E+00  0.00000E+00  0.00000E+00    0.13976E+03  0.00000E+00  0.00000E+00 -0.18432E+00  0.32183E+00  0.33547E+00
  0.84998E-01  0.14017E+03    0.85000E-01 -0.40487E-01 -0.44513E-01  0.00000E+00  0.00000E+00  0.00000E+00    0.14016E+03  0.00000E+00  0.00000E+00 -0.18233E+00  0.32485E+00  0.33624E+00
  0.85998E-01  0.14058E+03    0.86000E-01 -0.40962E-01 -0.45038E-01  0.00000E+00  0.00000E+00  0.00000E+00    0.14057E+03  0.00000E+00  0.00000E+00 -0.18061E+00  0.32780E+00  0.33701E+00
  0.86998E-01  0.14099E+03    0.87000E-01 -0.41437E-01 -0.45563E-01  0.00000E+00  0.00000E+00  0.00000E+00    0.14098E+03  0.00000E+00  0.00000E+00 -0.17888E+00  0.33077E+00  0.33778E+00
  0.87998E-01  0.14145E+03    0.88000E-01 -0.41912E-01 -0.46088E-01  0.00000E+00  0.00000E+00  0.00000E+00    0.14144E+03  0.00000E+00  0.00000E+00 -0.17540E+00  0.33448E+00  0.33847E+00
  0.88998E-01  0.14186E+03    0.89000E-01 -0.42387E-01 -0.46613E-01  0.00000E+00  0.00000E+00  0.00000E+00    0.14186E+03  0.00000E+00  0.00000E+00 -0.17407E+00  0.33739E+00  0.33923E+00
  0.89998E-01  0.14226E+03    0.90000E-01 -0.42862E-01 -0.47138E-01  0.00000E+00  0.00000E+00  0.00000E+00    0.14226E+03  0.00000E+00  0.00000E+00 -0.17228E+00  0.34043E+00  0.34002E+00
  0.90998E-01  0.14266E+03    0.91000E-01 -0.43337E-01 -0.47663E-01  0.00000E+00  0.00000E+00  0.00000E+00    0.14266E+03  0.00000E+00  0.00000E+00 -0.17046E+00  0.34348E+00  0.34083E+00
  0.91998E-01  0.14306E+03    0.92000E-01 -0.43812E-01 -0.48188E-01  0.00000E+00  0.00000E+00  0.00000E+00    0.14306E+03  0.00000E+00  0.00000E+00 -0.16864E+00  0.34655E+00  0.34165E+00
  0.92998E-01  0.14346E+03    0.93000E-01 -0.44287E-01 -0.48713E-01  0.00000E+00  0.00000E+00  0.00000E+00    0.14345E+03  0.00000E+00  0.00000E+00 -0.16679E+00  0.34964E+00  0.34248E+00
  0.93998E-01  0.14385E+03    0.94000E-01 -0.44762E-01 -0.49238E-01  0.00000E+00  0.00000E+00  0.00000E+00    0.14385E+03  0.00000E+00  0.00000E+00 -0.16492E+00  0.35275E+00  0.34332E+00
  0.94998E-01  0.14424E+03    0.95000E-01 -0.45237E-01 -0.49763E-01  0.00000E+00  0.00000E+00  0.00000E+00    0.14424E+03  0.00000E+00  0.00000E+00 -0.16304E+00  0.35588E+00  0.34418E+00
  0.95998E-01  0.14463E+03    0.96000E-01 -0.45712E-01 -0.50288E-01  0.00000E+00  0.00000E+00  0.00000E+00    0.14463E+03  0.00000E+00  0.00000E+00 -0.16114E+00  0.35903E+00  0.34505E+00
  0.96998E-01  0.14502E+03    0.97000E-01 -0.46187E-01 -0.50813E-01  0.00000E+00  0.00000E+00  0.00000E+00    0.14502E+03  0.00000E+00  0.00000E+00 -0.15922E+00  0.36220E+00  0.34593E+00
  0.97998E-01  0.14541E+03    0.98000E-01 -0.46662E-01 -0.51338E-01  0.00000E+00  0.00000E+00  0.00000E+00    0.14540E+03  0.00000E+00  0.00000E+00 -0.15728E+00  0.36539E+00  0.34682E+00
  0.98998E-01  0.14579E+03    0.99000E-01 -0.47137E-01 -0.51863E-01  0.00000E+00  0.00000E+00  0.00000E+00    0.14579E+03  0.00000E+00  0.00000E+00 -0.15533E+00  0.36860E+00  0.34773E+00
  0.99998E-01  0.14617E+03    0.10000E+00 -0.47611E-01 -0.52389E-01  0.00000E+00  0.00000E+00  0.00000E+00    0.14617E+03  0.00000E+00  0.00000E+00 -0.15336E+00  0.37183E+00  0.34866E+00
