          Evm          Svm            E11          E22          E33          E23          E13          E12         SCAU11       SCAU22       SCAU33       SCAU23       SCAU13       SCAU12      TEMP
  0.00000E+00  0.93739E+02    0.00000E+00  0.00000E+00  0.00000E+00  0.00000E+00  0.00000E+00  0.00000E+00    0.93736E+02  0.00000E+00  0.00000E+00 -0.21741E+00  0.13479E+00  0.25901E+00
  0.99998E-03  0.94371E+02    0.10000E-02 -0.47967E-03 -0.52033E-03  0.00000E+00  0.00000E+00  0.00000E+00    0.94368E+02  0.00000E+00  0.00000E+00 -0.22238E+00  0.13806E+00  0.26251E+00
  0.20000E-02  0.94966E+02    0.20000E-02 -0.95784E-03 -0.10422E-02  0.00000E+00  0.00000E+00  0.00000E+00    0.94964E+02  0.00000E+00  0.00000E+00 -0.22278E+00  0.13922E+00  0.26485E+00
  0.29999E-02  0.95624E+02    0.30000E-02 -0.14356E-02 -0.15644E-02  0.00000E+00  0.00000E+00  0.00000E+00    0.95622E+02  0.00000E+00  0.00000E+00 -0.22403E+00  0.14049E+00  0.26648E+00
  0.39999E-02  0.96280E+02    0.40000E-02 -0.19132E-02 -0.20868E-02  0.00000E+00  0.00000E+00  0.00000E+00    0.96278E+02  0.00000E+00  0.00000E+00 -0.22511E+00  0.14178E+00  0.26784E+00
  0.49999E-02  0.96932E+02    0.50000E-02 -0.23906E-02 -0.26094E-02  0.00000E+00  0.00000E+00  0.00000E+00    0.96929E+02  0.00000E+00  0.00000E+00 -0.22615E+00  0.14310E+00  0.26908E+00
  0.59999E-02  0.97567E+02    0.60000E-02 -0.28678E-02 -0.31322E-02  0.00000E+00  0.00000E+00  0.00000E+00    0.97565E+02  0.00000E+00  0.00000E+00 -0.22497E+00  0.14537E+00  0.27029E+00
  0.69998E-02  0.98220E+02    0.70000E-02 -0.33451E-02 -0.36549E-02  0.00000E+00  0.00000E+00  0.00000E+00    0.98217E+02  0.00000E+00  0.00000E+00 -0.22591E+00  0.14690E+00  0.27145E+00
  0.79998E-02  0.98860E+02    0.80000E-02 -0.38222E-02 -0.41778E-02  0.00000E+00  0.00000E+00  0.00000E+00    0.98858E+02  0.00000E+00  0.00000E+00 -0.22680E+00  0.14833E+00  0.27254E+00
  0.89998E-02  0.99495E+02    0.90000E-02 -0.42993E-02 -0.47007E-02  0.00000E+00  0.00000E+00  0.00000E+00    0.99493E+02  0.00000E+00  0.00000E+00 -0.22763E+00  0.14977E+00  0.27361E+00
  0.99998E-02  0.10013E+03    0.10000E-01 -0.47764E-02 -0.52236E-02  0.00000E+00  0.00000E+00  0.00000E+00    0.10013E+03  0.00000E+00  0.00000E+00 -0.22841E+00  0.15124E+00  0.27466E+00
  0.11000E-01  0.10076E+03    0.11000E-01 -0.52535E-02 -0.57465E-02  0.00000E+00  0.00000E+00  0.00000E+00    0.10075E+03  0.00000E+00  0.00000E+00 -0.22914E+00  0.15273E+00  0.27568E+00
  0.12000E-01  0.10138E+03    0.12000E-01 -0.57305E-02 -0.62695E-02  0.00000E+00  0.00000E+00  0.00000E+00    0.10138E+03  0.00000E+00  0.00000E+00 -0.22983E+00  0.15425E+00  0.27668E+00
  0.13000E-01  0.10200E+03    0.13000E-01 -0.62075E-02 -0.67925E-02  0.00000E+00  0.00000E+00  0.00000E+00    0.10200E+03  0.00000E+00  0.00000E+00 -0.23047E+00  0.15579E+00  0.27767E+00
  0.14000E-01  0.10262E+03    0.14000E-01 -0.66845E-02 -0.73155E-02  0.00000E+00  0.00000E+00  0.00000E+00    0.10261E+03  0.00000E+00  0.00000E+00 -0.23107E+00  0.15735E+00  0.27865E+00
  0.15000E-01  0.10323E+03    0.15000E-01 -0.71614E-02 -0.78386E-02  0.00000E+00  0.00000E+00  0.00000E+00    0.10323E+03  0.00000E+00  0.00000E+00 -0.23162E+00  0.15894E+00  0.27961E+00
  0.16000E-01  0.10384E+03    0.16000E-01 -0.76384E-02 -0.83616E-02  0.00000E+00  0.00000E+00  0.00000E+00    0.10384E+03  0.00000E+00  0.00000E+00 -0.23213E+00  0.16055E+00  0.28056E+00
  0.17000E-01  0.10444E+03    0.17000E-01 -0.81153E-02 -0.88847E-02  0.00000E+00  0.00000E+00  0.00000E+00    0.10444E+03  0.00000E+00  0.00000E+00 -0.23259E+00  0.16219E+00  0.28150E+00
  0.18000E-01  0.10505E+03    0.18000E-01 -0.85922E-02 -0.94078E-02  0.00000E+00  0.00000E+00  0.00000E+00    0.10504E+03  0.00000E+00  0.00000E+00 -0.23301E+00  0.16385E+00  0.28242E+00
  0.19000E-01  0.10564E+03    0.19000E-01 -0.90690E-02 -0.99310E-02  0.00000E+00  0.00000E+00  0.00000E+00    0.10564E+03  0.00000E+00  0.00000E+00 -0.23338E+00  0.16554E+00  0.28333E+00
  0.20000E-01  0.10624E+03    0.20000E-01 -0.95459E-02 -0.10454E-01  0.00000E+00  0.00000E+00  0.00000E+00    0.10624E+03  0.00000E+00  0.00000E+00 -0.23371E+00  0.16725E+00  0.28423E+00
  0.21000E-01  0.10683E+03    0.21000E-01 -0.10023E-01 -0.10977E-01  0.00000E+00  0.00000E+00  0.00000E+00    0.10683E+03  0.00000E+00  0.00000E+00 -0.23400E+00  0.16898E+00  0.28512E+00
  0.22000E-01  0.10742E+03    0.22000E-01 -0.10500E-01 -0.11500E-01  0.00000E+00  0.00000E+00  0.00000E+00    0.10741E+03  0.00000E+00  0.00000E+00 -0.23425E+00  0.17073E+00  0.28599E+00
  0.22999E-01  0.10800E+03    0.23000E-01 -0.10976E-01 -0.12024E-01  0.00000E+00  0.00000E+00  0.00000E+00    0.10800E+03  0.00000E+00  0.00000E+00 -0.23446E+00  0.17251E+00  0.28686E+00
  0.23999E-01  0.10858E+03    0.24000E-01 -0.11453E-01 -0.12547E-01  0.00000E+00  0.00000E+00  0.00000E+00    0.10858E+03  0.00000E+00  0.00000E+00 -0.23462E+00  0.17431E+00  0.28772E+00
  0.24999E-01  0.10916E+03    0.25000E-01 -0.11930E-01 -0.13070E-01  0.00000E+00  0.00000E+00  0.00000E+00    0.10915E+03  0.00000E+00  0.00000E+00 -0.23474E+00  0.17613E+00  0.28856E+00
  0.25999E-01  0.10973E+03    0.26000E-01 -0.12406E-01 -0.13594E-01  0.00000E+00  0.00000E+00  0.00000E+00    0.10973E+03  0.00000E+00  0.00000E+00 -0.23482E+00  0.17798E+00  0.28940E+00
  0.26999E-01  0.11030E+03    0.27000E-01 -0.12883E-01 -0.14117E-01  0.00000E+00  0.00000E+00  0.00000E+00    0.11030E+03  0.00000E+00  0.00000E+00 -0.23487E+00  0.17985E+00  0.29022E+00
  0.27999E-01  0.11087E+03    0.28000E-01 -0.13360E-01 -0.14640E-01  0.00000E+00  0.00000E+00  0.00000E+00    0.11087E+03  0.00000E+00  0.00000E+00 -0.23487E+00  0.18173E+00  0.29104E+00
  0.28999E-01  0.11143E+03    0.29000E-01 -0.13836E-01 -0.15164E-01  0.00000E+00  0.00000E+00  0.00000E+00    0.11143E+03  0.00000E+00  0.00000E+00 -0.23483E+00  0.18365E+00  0.29185E+00
  0.29999E-01  0.11199E+03    0.30000E-01 -0.14313E-01 -0.15687E-01  0.00000E+00  0.00000E+00  0.00000E+00    0.11199E+03  0.00000E+00  0.00000E+00 -0.23475E+00  0.18558E+00  0.29265E+00
  0.30999E-01  0.11255E+03    0.31000E-01 -0.14790E-01 -0.16210E-01  0.00000E+00  0.00000E+00  0.00000E+00    0.11255E+03  0.00000E+00  0.00000E+00 -0.23464E+00  0.18753E+00  0.29345E+00
  0.31999E-01  0.11310E+03    0.32000E-01 -0.15266E-01 -0.16734E-01  0.00000E+00  0.00000E+00  0.00000E+00    0.11310E+03  0.00000E+00  0.00000E+00 -0.23448E+00  0.18951E+00  0.29423E+00
  0.32999E-01  0.11365E+03    0.33000E-01 -0.15743E-01 -0.17257E-01  0.00000E+00  0.00000E+00  0.00000E+00    0.11365E+03  0.00000E+00  0.00000E+00 -0.23429E+00  0.19151E+00  0.29501E+00
  0.33999E-01  0.11420E+03    0.34000E-01 -0.16219E-01 -0.17781E-01  0.00000E+00  0.00000E+00  0.00000E+00    0.11420E+03  0.00000E+00  0.00000E+00 -0.23406E+00  0.19353E+00  0.29578E+00
  0.34999E-01  0.11474E+03    0.35000E-01 -0.16696E-01 -0.18304E-01  0.00000E+00  0.00000E+00  0.00000E+00    0.11474E+03  0.00000E+00  0.00000E+00 -0.23380E+00  0.19556E+00  0.29655E+00
  0.35999E-01  0.11528E+03    0.36000E-01 -0.17172E-01 -0.18828E-01  0.00000E+00  0.00000E+00  0.00000E+00    0.11528E+03  0.00000E+00  0.00000E+00 -0.23349E+00  0.19762E+00  0.29730E+00
  0.36999E-01  0.11582E+03    0.37000E-01 -0.17649E-01 -0.19351E-01  0.00000E+00  0.00000E+00  0.00000E+00    0.11582E+03  0.00000E+00  0.00000E+00 -0.23316E+00  0.19970E+00  0.29805E+00
  0.37999E-01  0.11635E+03    0.38000E-01 -0.18125E-01 -0.19875E-01  0.00000E+00  0.00000E+00  0.00000E+00    0.11635E+03  0.00000E+00  0.00000E+00 -0.23279E+00  0.20180E+00  0.29879E+00
  0.38999E-01  0.11689E+03    0.39000E-01 -0.18601E-01 -0.20399E-01  0.00000E+00  0.00000E+00  0.00000E+00    0.11688E+03  0.00000E+00  0.00000E+00 -0.23238E+00  0.20392E+00  0.29953E+00
  0.39999E-01  0.11741E+03    0.40000E-01 -0.19078E-01 -0.20922E-01  0.00000E+00  0.00000E+00  0.00000E+00    0.11741E+03  0.00000E+00  0.00000E+00 -0.23194E+00  0.20606E+00  0.30026E+00
  0.40999E-01  0.11794E+03    0.41000E-01 -0.19554E-01 -0.21446E-01  0.00000E+00  0.00000E+00  0.00000E+00    0.11794E+03  0.00000E+00  0.00000E+00 -0.23146E+00  0.20822E+00  0.30099E+00
  0.41999E-01  0.11846E+03    0.42000E-01 -0.20030E-01 -0.21970E-01  0.00000E+00  0.00000E+00  0.00000E+00    0.11846E+03  0.00000E+00  0.00000E+00 -0.23095E+00  0.21040E+00  0.30171E+00
  0.42999E-01  0.11898E+03    0.43000E-01 -0.20507E-01 -0.22493E-01  0.00000E+00  0.00000E+00  0.00000E+00    0.11898E+03  0.00000E+00  0.00000E+00 -0.23040E+00  0.21260E+00  0.30242E+00
  0.43999E-01  0.11946E+03    0.44000E-01 -0.20983E-01 -0.23017E-01  0.00000E+00  0.00000E+00  0.00000E+00    0.11946E+03  0.00000E+00  0.00000E+00 -0.23323E+00  0.21305E+00  0.30314E+00
  0.44999E-01  0.12000E+03    0.45000E-01 -0.21459E-01 -0.23541E-01  0.00000E+00  0.00000E+00  0.00000E+00    0.12000E+03  0.00000E+00  0.00000E+00 -0.22945E+00  0.21689E+00  0.30380E+00
  0.45999E-01  0.12048E+03    0.46000E-01 -0.21935E-01 -0.24065E-01  0.00000E+00  0.00000E+00  0.00000E+00    0.12048E+03  0.00000E+00  0.00000E+00 -0.23199E+00  0.21748E+00  0.30456E+00
  0.46999E-01  0.12099E+03    0.47000E-01 -0.22412E-01 -0.24588E-01  0.00000E+00  0.00000E+00  0.00000E+00    0.12099E+03  0.00000E+00  0.00000E+00 -0.23141E+00  0.21964E+00  0.30526E+00
  0.47999E-01  0.12149E+03    0.48000E-01 -0.22888E-01 -0.25112E-01  0.00000E+00  0.00000E+00  0.00000E+00    0.12149E+03  0.00000E+00  0.00000E+00 -0.23071E+00  0.22190E+00  0.30596E+00
  0.48999E-01  0.12200E+03    0.49000E-01 -0.23364E-01 -0.25636E-01  0.00000E+00  0.00000E+00  0.00000E+00    0.12199E+03  0.00000E+00  0.00000E+00 -0.22998E+00  0.22419E+00  0.30666E+00
  0.49999E-01  0.12250E+03    0.50000E-01 -0.23840E-01 -0.26160E-01  0.00000E+00  0.00000E+00  0.00000E+00    0.12249E+03  0.00000E+00  0.00000E+00 -0.22921E+00  0.22649E+00  0.30735E+00
  0.50999E-01  0.12299E+03    0.51000E-01 -0.24316E-01 -0.26684E-01  0.00000E+00  0.00000E+00  0.00000E+00    0.12299E+03  0.00000E+00  0.00000E+00 -0.22842E+00  0.22880E+00  0.30804E+00
  0.51999E-01  0.12348E+03    0.52000E-01 -0.24792E-01 -0.27208E-01  0.00000E+00  0.00000E+00  0.00000E+00    0.12348E+03  0.00000E+00  0.00000E+00 -0.22759E+00  0.23114E+00  0.30873E+00
  0.52999E-01  0.12398E+03    0.53000E-01 -0.25268E-01 -0.27732E-01  0.00000E+00  0.00000E+00  0.00000E+00    0.12397E+03  0.00000E+00  0.00000E+00 -0.22673E+00  0.23349E+00  0.30941E+00
  0.53999E-01  0.12446E+03    0.54000E-01 -0.25744E-01 -0.28256E-01  0.00000E+00  0.00000E+00  0.00000E+00    0.12446E+03  0.00000E+00  0.00000E+00 -0.22585E+00  0.23586E+00  0.31009E+00
  0.54999E-01  0.12497E+03    0.55000E-01 -0.26220E-01 -0.28780E-01  0.00000E+00  0.00000E+00  0.00000E+00    0.12496E+03  0.00000E+00  0.00000E+00 -0.22171E+00  0.24006E+00  0.31062E+00
  0.55999E-01  0.12543E+03    0.56000E-01 -0.26696E-01 -0.29304E-01  0.00000E+00  0.00000E+00  0.00000E+00    0.12543E+03  0.00000E+00  0.00000E+00 -0.22394E+00  0.24074E+00  0.31145E+00
  0.56999E-01  0.12593E+03    0.57000E-01 -0.27172E-01 -0.29828E-01  0.00000E+00  0.00000E+00  0.00000E+00    0.12593E+03  0.00000E+00  0.00000E+00 -0.21981E+00  0.24492E+00  0.31197E+00
  0.57999E-01  0.12639E+03    0.58000E-01 -0.27648E-01 -0.30352E-01  0.00000E+00  0.00000E+00  0.00000E+00    0.12638E+03  0.00000E+00  0.00000E+00 -0.22196E+00  0.24560E+00  0.31280E+00
  0.58999E-01  0.12685E+03    0.59000E-01 -0.28124E-01 -0.30876E-01  0.00000E+00  0.00000E+00  0.00000E+00    0.12685E+03  0.00000E+00  0.00000E+00 -0.22139E+00  0.24779E+00  0.31345E+00
  0.59999E-01  0.12733E+03    0.60000E-01 -0.28600E-01 -0.31400E-01  0.00000E+00  0.00000E+00  0.00000E+00    0.12733E+03  0.00000E+00  0.00000E+00 -0.21996E+00  0.25043E+00  0.31414E+00
  0.60999E-01  0.12779E+03    0.61000E-01 -0.29075E-01 -0.31925E-01  0.00000E+00  0.00000E+00  0.00000E+00    0.12779E+03  0.00000E+00  0.00000E+00 -0.21925E+00  0.25274E+00  0.31479E+00
  0.61999E-01  0.12827E+03    0.62000E-01 -0.29551E-01 -0.32449E-01  0.00000E+00  0.00000E+00  0.00000E+00    0.12827E+03  0.00000E+00  0.00000E+00 -0.21776E+00  0.25541E+00  0.31548E+00
  0.62999E-01  0.12872E+03    0.63000E-01 -0.30027E-01 -0.32973E-01  0.00000E+00  0.00000E+00  0.00000E+00    0.12872E+03  0.00000E+00  0.00000E+00 -0.21700E+00  0.25776E+00  0.31614E+00
  0.63999E-01  0.12919E+03    0.64000E-01 -0.30503E-01 -0.33497E-01  0.00000E+00  0.00000E+00  0.00000E+00    0.12919E+03  0.00000E+00  0.00000E+00 -0.21546E+00  0.26047E+00  0.31682E+00
  0.64999E-01  0.12964E+03    0.65000E-01 -0.30978E-01 -0.34022E-01  0.00000E+00  0.00000E+00  0.00000E+00    0.12964E+03  0.00000E+00  0.00000E+00 -0.21465E+00  0.26284E+00  0.31748E+00
  0.65999E-01  0.13011E+03    0.66000E-01 -0.31454E-01 -0.34546E-01  0.00000E+00  0.00000E+00  0.00000E+00    0.13011E+03  0.00000E+00  0.00000E+00 -0.21306E+00  0.26559E+00  0.31816E+00
  0.66999E-01  0.13055E+03    0.67000E-01 -0.31930E-01 -0.35070E-01  0.00000E+00  0.00000E+00  0.00000E+00    0.13055E+03  0.00000E+00  0.00000E+00 -0.21219E+00  0.26799E+00  0.31882E+00
  0.67999E-01  0.13102E+03    0.68000E-01 -0.32405E-01 -0.35595E-01  0.00000E+00  0.00000E+00  0.00000E+00    0.13101E+03  0.00000E+00  0.00000E+00 -0.21054E+00  0.27077E+00  0.31950E+00
  0.68999E-01  0.13145E+03    0.69000E-01 -0.32881E-01 -0.36119E-01  0.00000E+00  0.00000E+00  0.00000E+00    0.13145E+03  0.00000E+00  0.00000E+00 -0.20962E+00  0.27321E+00  0.32018E+00
  0.69999E-01  0.13190E+03    0.70000E-01 -0.33357E-01 -0.36643E-01  0.00000E+00  0.00000E+00  0.00000E+00    0.13189E+03  0.00000E+00  0.00000E+00 -0.20837E+00  0.27581E+00  0.32085E+00
  0.70999E-01  0.13234E+03    0.71000E-01 -0.33832E-01 -0.37168E-01  0.00000E+00  0.00000E+00  0.00000E+00    0.13234E+03  0.00000E+00  0.00000E+00 -0.20704E+00  0.27846E+00  0.32153E+00
  0.71999E-01  0.13278E+03    0.72000E-01 -0.34308E-01 -0.37692E-01  0.00000E+00  0.00000E+00  0.00000E+00    0.13278E+03  0.00000E+00  0.00000E+00 -0.20568E+00  0.28112E+00  0.32221E+00
  0.72998E-01  0.13322E+03    0.73000E-01 -0.34783E-01 -0.38217E-01  0.00000E+00  0.00000E+00  0.00000E+00    0.13322E+03  0.00000E+00  0.00000E+00 -0.20429E+00  0.28380E+00  0.32290E+00
  0.73998E-01  0.13366E+03    0.74000E-01 -0.35259E-01 -0.38741E-01  0.00000E+00  0.00000E+00  0.00000E+00    0.13366E+03  0.00000E+00  0.00000E+00 -0.20287E+00  0.28649E+00  0.32358E+00
  0.74998E-01  0.13409E+03    0.75000E-01 -0.35734E-01 -0.39266E-01  0.00000E+00  0.00000E+00  0.00000E+00    0.13409E+03  0.00000E+00  0.00000E+00 -0.20144E+00  0.28921E+00  0.32428E+00
  0.75998E-01  0.13453E+03    0.76000E-01 -0.36210E-01 -0.39790E-01  0.00000E+00  0.00000E+00  0.00000E+00    0.13452E+03  0.00000E+00  0.00000E+00 -0.19997E+00  0.29194E+00  0.32497E+00
  0.76998E-01  0.13496E+03    0.77000E-01 -0.36685E-01 -0.40315E-01  0.00000E+00  0.00000E+00  0.00000E+00    0.13495E+03  0.00000E+00  0.00000E+00 -0.19849E+00  0.29468E+00  0.32567E+00
  0.77998E-01  0.13539E+03    0.78000E-01 -0.37160E-01 -0.40840E-01  0.00000E+00  0.00000E+00  0.00000E+00    0.13538E+03  0.00000E+00  0.00000E+00 -0.19698E+00  0.29744E+00  0.32638E+00
  0.78998E-01  0.13581E+03    0.79000E-01 -0.37636E-01 -0.41364E-01  0.00000E+00  0.00000E+00  0.00000E+00    0.13581E+03  0.00000E+00  0.00000E+00 -0.19545E+00  0.30023E+00  0.32709E+00
  0.79998E-01  0.13623E+03    0.80000E-01 -0.38111E-01 -0.41889E-01  0.00000E+00  0.00000E+00  0.00000E+00    0.13623E+03  0.00000E+00  0.00000E+00 -0.19390E+00  0.30302E+00  0.32780E+00
  0.80998E-01  0.13666E+03    0.81000E-01 -0.38586E-01 -0.42414E-01  0.00000E+00  0.00000E+00  0.00000E+00    0.13665E+03  0.00000E+00  0.00000E+00 -0.19232E+00  0.30584E+00  0.32853E+00
  0.81998E-01  0.13707E+03    0.82000E-01 -0.39061E-01 -0.42939E-01  0.00000E+00  0.00000E+00  0.00000E+00    0.13707E+03  0.00000E+00  0.00000E+00 -0.19073E+00  0.30867E+00  0.32925E+00
  0.82998E-01  0.13749E+03    0.83000E-01 -0.39537E-01 -0.43463E-01  0.00000E+00  0.00000E+00  0.00000E+00    0.13749E+03  0.00000E+00  0.00000E+00 -0.18911E+00  0.31152E+00  0.32999E+00
  0.83998E-01  0.13791E+03    0.84000E-01 -0.40012E-01 -0.43988E-01  0.00000E+00  0.00000E+00  0.00000E+00    0.13790E+03  0.00000E+00  0.00000E+00 -0.17986E+00  0.31797E+00  0.33077E+00
  0.84998E-01  0.13829E+03    0.85000E-01 -0.40487E-01 -0.44513E-01  0.00000E+00  0.00000E+00  0.00000E+00    0.13829E+03  0.00000E+00  0.00000E+00 -0.18019E+00  0.32041E+00  0.33164E+00
  0.85998E-01  0.13870E+03    0.86000E-01 -0.40962E-01 -0.45038E-01  0.00000E+00  0.00000E+00  0.00000E+00    0.13869E+03  0.00000E+00  0.00000E+00 -0.17821E+00  0.32342E+00  0.33242E+00
  0.86998E-01  0.13910E+03    0.87000E-01 -0.41437E-01 -0.45563E-01  0.00000E+00  0.00000E+00  0.00000E+00    0.13910E+03  0.00000E+00  0.00000E+00 -0.17650E+00  0.32637E+00  0.33320E+00
  0.87998E-01  0.13951E+03    0.88000E-01 -0.41912E-01 -0.46088E-01  0.00000E+00  0.00000E+00  0.00000E+00    0.13951E+03  0.00000E+00  0.00000E+00 -0.17478E+00  0.32933E+00  0.33398E+00
  0.88998E-01  0.13991E+03    0.89000E-01 -0.42387E-01 -0.46613E-01  0.00000E+00  0.00000E+00  0.00000E+00    0.13991E+03  0.00000E+00  0.00000E+00 -0.17303E+00  0.33231E+00  0.33478E+00
  0.89998E-01  0.14037E+03    0.90000E-01 -0.42863E-01 -0.47137E-01  0.00000E+00  0.00000E+00  0.00000E+00    0.14037E+03  0.00000E+00  0.00000E+00 -0.16953E+00  0.33604E+00  0.33548E+00
  0.90998E-01  0.14078E+03    0.91000E-01 -0.43338E-01 -0.47662E-01  0.00000E+00  0.00000E+00  0.00000E+00    0.14078E+03  0.00000E+00  0.00000E+00 -0.16819E+00  0.33896E+00  0.33626E+00
  0.91998E-01  0.14118E+03    0.92000E-01 -0.43813E-01 -0.48187E-01  0.00000E+00  0.00000E+00  0.00000E+00    0.14117E+03  0.00000E+00  0.00000E+00 -0.16639E+00  0.34200E+00  0.33708E+00
  0.92998E-01  0.14157E+03    0.93000E-01 -0.44287E-01 -0.48713E-01  0.00000E+00  0.00000E+00  0.00000E+00    0.14157E+03  0.00000E+00  0.00000E+00 -0.16457E+00  0.34507E+00  0.33791E+00
  0.93998E-01  0.14197E+03    0.94000E-01 -0.44762E-01 -0.49238E-01  0.00000E+00  0.00000E+00  0.00000E+00    0.14196E+03  0.00000E+00  0.00000E+00 -0.16273E+00  0.34815E+00  0.33875E+00
  0.94998E-01  0.14236E+03    0.95000E-01 -0.45237E-01 -0.49763E-01  0.00000E+00  0.00000E+00  0.00000E+00    0.14236E+03  0.00000E+00  0.00000E+00 -0.16087E+00  0.35125E+00  0.33961E+00
  0.95998E-01  0.14275E+03    0.96000E-01 -0.45712E-01 -0.50288E-01  0.00000E+00  0.00000E+00  0.00000E+00    0.14275E+03  0.00000E+00  0.00000E+00 -0.15900E+00  0.35438E+00  0.34048E+00
  0.96998E-01  0.14314E+03    0.97000E-01 -0.46187E-01 -0.50813E-01  0.00000E+00  0.00000E+00  0.00000E+00    0.14313E+03  0.00000E+00  0.00000E+00 -0.15711E+00  0.35752E+00  0.34136E+00
  0.97998E-01  0.14352E+03    0.98000E-01 -0.46662E-01 -0.51338E-01  0.00000E+00  0.00000E+00  0.00000E+00    0.14352E+03  0.00000E+00  0.00000E+00 -0.15520E+00  0.36068E+00  0.34226E+00
  0.98998E-01  0.14391E+03    0.99000E-01 -0.47137E-01 -0.51863E-01  0.00000E+00  0.00000E+00  0.00000E+00    0.14390E+03  0.00000E+00  0.00000E+00 -0.15328E+00  0.36386E+00  0.34317E+00
  0.99998E-01  0.14429E+03    0.10000E+00 -0.47611E-01 -0.52389E-01  0.00000E+00  0.00000E+00  0.00000E+00    0.14429E+03  0.00000E+00  0.00000E+00 -0.15134E+00  0.36707E+00  0.34409E+00
