          Evm          Svm            E11          E22          E33          E23          E13          E12         SCAU11       SCAU22       SCAU33       SCAU23       SCAU13       SCAU12      TEMP
  0.00000E+00  0.11617E+03    0.00000E+00  0.00000E+00  0.00000E+00  0.00000E+00  0.00000E+00  0.00000E+00    0.11617E+03  0.00000E+00  0.00000E+00 -0.26943E+00  0.16704E+00  0.32099E+00
  0.99998E-03  0.11673E+03    0.10000E-02 -0.47967E-03 -0.52033E-03  0.00000E+00  0.00000E+00  0.00000E+00    0.11673E+03  0.00000E+00  0.00000E+00 -0.27398E+00  0.17257E+00  0.32405E+00
  0.20000E-02  0.11738E+03    0.20000E-02 -0.95794E-03 -0.10421E-02  0.00000E+00  0.00000E+00  0.00000E+00    0.11738E+03  0.00000E+00  0.00000E+00 -0.27261E+00  0.17320E+00  0.32708E+00
  0.29999E-02  0.11805E+03    0.30000E-02 -0.14358E-02 -0.15642E-02  0.00000E+00  0.00000E+00  0.00000E+00    0.11805E+03  0.00000E+00  0.00000E+00 -0.27367E+00  0.17465E+00  0.32885E+00
  0.39999E-02  0.11871E+03    0.40000E-02 -0.19135E-02 -0.20865E-02  0.00000E+00  0.00000E+00  0.00000E+00    0.11871E+03  0.00000E+00  0.00000E+00 -0.27457E+00  0.17606E+00  0.33017E+00
  0.49999E-02  0.11936E+03    0.50000E-02 -0.23910E-02 -0.26090E-02  0.00000E+00  0.00000E+00  0.00000E+00    0.11936E+03  0.00000E+00  0.00000E+00 -0.27540E+00  0.17751E+00  0.33137E+00
  0.59999E-02  0.12001E+03    0.60000E-02 -0.28684E-02 -0.31316E-02  0.00000E+00  0.00000E+00  0.00000E+00    0.12001E+03  0.00000E+00  0.00000E+00 -0.27619E+00  0.17899E+00  0.33248E+00
  0.69998E-02  0.12065E+03    0.70000E-02 -0.33457E-02 -0.36543E-02  0.00000E+00  0.00000E+00  0.00000E+00    0.12065E+03  0.00000E+00  0.00000E+00 -0.27693E+00  0.18051E+00  0.33353E+00
  0.79998E-02  0.12129E+03    0.80000E-02 -0.38229E-02 -0.41771E-02  0.00000E+00  0.00000E+00  0.00000E+00    0.12129E+03  0.00000E+00  0.00000E+00 -0.27762E+00  0.18207E+00  0.33454E+00
  0.89998E-02  0.12193E+03    0.90000E-02 -0.43001E-02 -0.46999E-02  0.00000E+00  0.00000E+00  0.00000E+00    0.12193E+03  0.00000E+00  0.00000E+00 -0.27825E+00  0.18365E+00  0.33551E+00
  0.99998E-02  0.12256E+03    0.10000E-01 -0.47772E-02 -0.52228E-02  0.00000E+00  0.00000E+00  0.00000E+00    0.12256E+03  0.00000E+00  0.00000E+00 -0.27884E+00  0.18527E+00  0.33645E+00
  0.11000E-01  0.12319E+03    0.11000E-01 -0.52543E-02 -0.57457E-02  0.00000E+00  0.00000E+00  0.00000E+00    0.12319E+03  0.00000E+00  0.00000E+00 -0.27938E+00  0.18691E+00  0.33737E+00
  0.12000E-01  0.12382E+03    0.12000E-01 -0.57314E-02 -0.62686E-02  0.00000E+00  0.00000E+00  0.00000E+00    0.12381E+03  0.00000E+00  0.00000E+00 -0.27987E+00  0.18858E+00  0.33826E+00
  0.13000E-01  0.12444E+03    0.13000E-01 -0.62084E-02 -0.67916E-02  0.00000E+00  0.00000E+00  0.00000E+00    0.12444E+03  0.00000E+00  0.00000E+00 -0.28030E+00  0.19029E+00  0.33913E+00
  0.14000E-01  0.12506E+03    0.14000E-01 -0.66853E-02 -0.73147E-02  0.00000E+00  0.00000E+00  0.00000E+00    0.12505E+03  0.00000E+00  0.00000E+00 -0.28069E+00  0.19201E+00  0.33999E+00
  0.15000E-01  0.12567E+03    0.15000E-01 -0.71623E-02 -0.78377E-02  0.00000E+00  0.00000E+00  0.00000E+00    0.12567E+03  0.00000E+00  0.00000E+00 -0.28103E+00  0.19376E+00  0.34083E+00
  0.16000E-01  0.12628E+03    0.16000E-01 -0.76392E-02 -0.83608E-02  0.00000E+00  0.00000E+00  0.00000E+00    0.12628E+03  0.00000E+00  0.00000E+00 -0.28132E+00  0.19555E+00  0.34166E+00
  0.17000E-01  0.12689E+03    0.17000E-01 -0.81161E-02 -0.88839E-02  0.00000E+00  0.00000E+00  0.00000E+00    0.12688E+03  0.00000E+00  0.00000E+00 -0.28157E+00  0.19736E+00  0.34247E+00
  0.18000E-01  0.12749E+03    0.18000E-01 -0.85930E-02 -0.94070E-02  0.00000E+00  0.00000E+00  0.00000E+00    0.12749E+03  0.00000E+00  0.00000E+00 -0.28176E+00  0.19919E+00  0.34327E+00
  0.19000E-01  0.12809E+03    0.19000E-01 -0.90699E-02 -0.99301E-02  0.00000E+00  0.00000E+00  0.00000E+00    0.12808E+03  0.00000E+00  0.00000E+00 -0.28191E+00  0.20105E+00  0.34406E+00
  0.20000E-01  0.12868E+03    0.20000E-01 -0.95467E-02 -0.10453E-01  0.00000E+00  0.00000E+00  0.00000E+00    0.12868E+03  0.00000E+00  0.00000E+00 -0.28201E+00  0.20294E+00  0.34484E+00
  0.21000E-01  0.12927E+03    0.21000E-01 -0.10024E-01 -0.10976E-01  0.00000E+00  0.00000E+00  0.00000E+00    0.12927E+03  0.00000E+00  0.00000E+00 -0.28207E+00  0.20486E+00  0.34561E+00
  0.22000E-01  0.12986E+03    0.22000E-01 -0.10500E-01 -0.11500E-01  0.00000E+00  0.00000E+00  0.00000E+00    0.12986E+03  0.00000E+00  0.00000E+00 -0.28209E+00  0.20680E+00  0.34636E+00
  0.22999E-01  0.13045E+03    0.23000E-01 -0.10977E-01 -0.12023E-01  0.00000E+00  0.00000E+00  0.00000E+00    0.13044E+03  0.00000E+00  0.00000E+00 -0.28206E+00  0.20876E+00  0.34711E+00
  0.23999E-01  0.13103E+03    0.24000E-01 -0.11454E-01 -0.12546E-01  0.00000E+00  0.00000E+00  0.00000E+00    0.13103E+03  0.00000E+00  0.00000E+00 -0.28198E+00  0.21075E+00  0.34784E+00
  0.24999E-01  0.13156E+03    0.25000E-01 -0.11931E-01 -0.13069E-01  0.00000E+00  0.00000E+00  0.00000E+00    0.13155E+03  0.00000E+00  0.00000E+00 -0.28520E+00  0.21126E+00  0.34851E+00
  0.25999E-01  0.13217E+03    0.26000E-01 -0.12407E-01 -0.13593E-01  0.00000E+00  0.00000E+00  0.00000E+00    0.13216E+03  0.00000E+00  0.00000E+00 -0.28191E+00  0.21457E+00  0.34927E+00
  0.26999E-01  0.13270E+03    0.27000E-01 -0.12884E-01 -0.14116E-01  0.00000E+00  0.00000E+00  0.00000E+00    0.13270E+03  0.00000E+00  0.00000E+00 -0.28487E+00  0.21532E+00  0.34993E+00
  0.27999E-01  0.13330E+03    0.28000E-01 -0.13361E-01 -0.14639E-01  0.00000E+00  0.00000E+00  0.00000E+00    0.13330E+03  0.00000E+00  0.00000E+00 -0.28147E+00  0.21872E+00  0.35066E+00
  0.28999E-01  0.13383E+03    0.29000E-01 -0.13837E-01 -0.15163E-01  0.00000E+00  0.00000E+00  0.00000E+00    0.13383E+03  0.00000E+00  0.00000E+00 -0.28435E+00  0.21949E+00  0.35134E+00
  0.29999E-01  0.13443E+03    0.30000E-01 -0.14314E-01 -0.15686E-01  0.00000E+00  0.00000E+00  0.00000E+00    0.13443E+03  0.00000E+00  0.00000E+00 -0.28086E+00  0.22297E+00  0.35203E+00
  0.30999E-01  0.13495E+03    0.31000E-01 -0.14790E-01 -0.16210E-01  0.00000E+00  0.00000E+00  0.00000E+00    0.13495E+03  0.00000E+00  0.00000E+00 -0.28367E+00  0.22376E+00  0.35271E+00
  0.31999E-01  0.13554E+03    0.32000E-01 -0.15267E-01 -0.16733E-01  0.00000E+00  0.00000E+00  0.00000E+00    0.13554E+03  0.00000E+00  0.00000E+00 -0.28008E+00  0.22732E+00  0.35337E+00
  0.32999E-01  0.13606E+03    0.33000E-01 -0.15744E-01 -0.17256E-01  0.00000E+00  0.00000E+00  0.00000E+00    0.13606E+03  0.00000E+00  0.00000E+00 -0.28282E+00  0.22812E+00  0.35406E+00
  0.33999E-01  0.13664E+03    0.34000E-01 -0.16220E-01 -0.17780E-01  0.00000E+00  0.00000E+00  0.00000E+00    0.13664E+03  0.00000E+00  0.00000E+00 -0.27914E+00  0.23176E+00  0.35468E+00
  0.34999E-01  0.13715E+03    0.35000E-01 -0.16697E-01 -0.18303E-01  0.00000E+00  0.00000E+00  0.00000E+00    0.13715E+03  0.00000E+00  0.00000E+00 -0.28181E+00  0.23257E+00  0.35538E+00
  0.35999E-01  0.13773E+03    0.36000E-01 -0.17173E-01 -0.18827E-01  0.00000E+00  0.00000E+00  0.00000E+00    0.13772E+03  0.00000E+00  0.00000E+00 -0.27805E+00  0.23630E+00  0.35598E+00
  0.36999E-01  0.13823E+03    0.37000E-01 -0.17649E-01 -0.19351E-01  0.00000E+00  0.00000E+00  0.00000E+00    0.13823E+03  0.00000E+00  0.00000E+00 -0.28064E+00  0.23711E+00  0.35668E+00
  0.37999E-01  0.13880E+03    0.38000E-01 -0.18126E-01 -0.19874E-01  0.00000E+00  0.00000E+00  0.00000E+00    0.13880E+03  0.00000E+00  0.00000E+00 -0.27681E+00  0.24092E+00  0.35725E+00
  0.38999E-01  0.13930E+03    0.39000E-01 -0.18602E-01 -0.20398E-01  0.00000E+00  0.00000E+00  0.00000E+00    0.13930E+03  0.00000E+00  0.00000E+00 -0.27933E+00  0.24174E+00  0.35797E+00
  0.39999E-01  0.13982E+03    0.40000E-01 -0.19079E-01 -0.20921E-01  0.00000E+00  0.00000E+00  0.00000E+00    0.13982E+03  0.00000E+00  0.00000E+00 -0.27906E+00  0.24387E+00  0.35856E+00
  0.40999E-01  0.14036E+03    0.41000E-01 -0.19555E-01 -0.21445E-01  0.00000E+00  0.00000E+00  0.00000E+00    0.14036E+03  0.00000E+00  0.00000E+00 -0.27797E+00  0.24636E+00  0.35922E+00
  0.41999E-01  0.14087E+03    0.42000E-01 -0.20031E-01 -0.21969E-01  0.00000E+00  0.00000E+00  0.00000E+00    0.14087E+03  0.00000E+00  0.00000E+00 -0.27754E+00  0.24862E+00  0.35980E+00
  0.42999E-01  0.14140E+03    0.43000E-01 -0.20507E-01 -0.22493E-01  0.00000E+00  0.00000E+00  0.00000E+00    0.14140E+03  0.00000E+00  0.00000E+00 -0.27636E+00  0.25116E+00  0.36046E+00
  0.43999E-01  0.14191E+03    0.44000E-01 -0.20984E-01 -0.23016E-01  0.00000E+00  0.00000E+00  0.00000E+00    0.14190E+03  0.00000E+00  0.00000E+00 -0.27586E+00  0.25346E+00  0.36104E+00
  0.44999E-01  0.14244E+03    0.45000E-01 -0.21460E-01 -0.23540E-01  0.00000E+00  0.00000E+00  0.00000E+00    0.14243E+03  0.00000E+00  0.00000E+00 -0.27461E+00  0.25605E+00  0.36168E+00
  0.45999E-01  0.14293E+03    0.46000E-01 -0.21936E-01 -0.24064E-01  0.00000E+00  0.00000E+00  0.00000E+00    0.14293E+03  0.00000E+00  0.00000E+00 -0.27405E+00  0.25838E+00  0.36226E+00
  0.46999E-01  0.14344E+03    0.47000E-01 -0.22412E-01 -0.24588E-01  0.00000E+00  0.00000E+00  0.00000E+00    0.14344E+03  0.00000E+00  0.00000E+00 -0.27316E+00  0.26086E+00  0.36286E+00
  0.47999E-01  0.14396E+03    0.48000E-01 -0.22888E-01 -0.25112E-01  0.00000E+00  0.00000E+00  0.00000E+00    0.14396E+03  0.00000E+00  0.00000E+00 -0.27174E+00  0.26353E+00  0.36349E+00
  0.48999E-01  0.14445E+03    0.49000E-01 -0.23365E-01 -0.25635E-01  0.00000E+00  0.00000E+00  0.00000E+00    0.14445E+03  0.00000E+00  0.00000E+00 -0.27107E+00  0.26591E+00  0.36407E+00
  0.49999E-01  0.14495E+03    0.50000E-01 -0.23841E-01 -0.26159E-01  0.00000E+00  0.00000E+00  0.00000E+00    0.14495E+03  0.00000E+00  0.00000E+00 -0.27008E+00  0.26844E+00  0.36466E+00
  0.50999E-01  0.14545E+03    0.51000E-01 -0.24317E-01 -0.26683E-01  0.00000E+00  0.00000E+00  0.00000E+00    0.14544E+03  0.00000E+00  0.00000E+00 -0.26900E+00  0.27101E+00  0.36526E+00
  0.51999E-01  0.14594E+03    0.52000E-01 -0.24793E-01 -0.27207E-01  0.00000E+00  0.00000E+00  0.00000E+00    0.14594E+03  0.00000E+00  0.00000E+00 -0.26788E+00  0.27360E+00  0.36585E+00
  0.52999E-01  0.14643E+03    0.53000E-01 -0.25269E-01 -0.27731E-01  0.00000E+00  0.00000E+00  0.00000E+00    0.14643E+03  0.00000E+00  0.00000E+00 -0.26672E+00  0.27620E+00  0.36644E+00
  0.53999E-01  0.14692E+03    0.54000E-01 -0.25745E-01 -0.28255E-01  0.00000E+00  0.00000E+00  0.00000E+00    0.14692E+03  0.00000E+00  0.00000E+00 -0.26554E+00  0.27883E+00  0.36704E+00
  0.54999E-01  0.14741E+03    0.55000E-01 -0.26221E-01 -0.28779E-01  0.00000E+00  0.00000E+00  0.00000E+00    0.14740E+03  0.00000E+00  0.00000E+00 -0.26433E+00  0.28148E+00  0.36763E+00
  0.55999E-01  0.14789E+03    0.56000E-01 -0.26697E-01 -0.29303E-01  0.00000E+00  0.00000E+00  0.00000E+00    0.14789E+03  0.00000E+00  0.00000E+00 -0.26308E+00  0.28414E+00  0.36822E+00
  0.56999E-01  0.14837E+03    0.57000E-01 -0.27173E-01 -0.29827E-01  0.00000E+00  0.00000E+00  0.00000E+00    0.14837E+03  0.00000E+00  0.00000E+00 -0.26181E+00  0.28683E+00  0.36881E+00
  0.57999E-01  0.14885E+03    0.58000E-01 -0.27648E-01 -0.30352E-01  0.00000E+00  0.00000E+00  0.00000E+00    0.14885E+03  0.00000E+00  0.00000E+00 -0.26050E+00  0.28953E+00  0.36939E+00
  0.58999E-01  0.14933E+03    0.59000E-01 -0.28124E-01 -0.30876E-01  0.00000E+00  0.00000E+00  0.00000E+00    0.14932E+03  0.00000E+00  0.00000E+00 -0.25917E+00  0.29225E+00  0.36998E+00
  0.59999E-01  0.14980E+03    0.60000E-01 -0.28600E-01 -0.31400E-01  0.00000E+00  0.00000E+00  0.00000E+00    0.14980E+03  0.00000E+00  0.00000E+00 -0.25780E+00  0.29498E+00  0.37058E+00
  0.60999E-01  0.15027E+03    0.61000E-01 -0.29076E-01 -0.31924E-01  0.00000E+00  0.00000E+00  0.00000E+00    0.15027E+03  0.00000E+00  0.00000E+00 -0.25641E+00  0.29774E+00  0.37117E+00
  0.61999E-01  0.15074E+03    0.62000E-01 -0.29552E-01 -0.32448E-01  0.00000E+00  0.00000E+00  0.00000E+00    0.15074E+03  0.00000E+00  0.00000E+00 -0.25498E+00  0.30051E+00  0.37176E+00
  0.62999E-01  0.15120E+03    0.63000E-01 -0.30027E-01 -0.32973E-01  0.00000E+00  0.00000E+00  0.00000E+00    0.15120E+03  0.00000E+00  0.00000E+00 -0.25353E+00  0.30330E+00  0.37235E+00
  0.63999E-01  0.15167E+03    0.64000E-01 -0.30503E-01 -0.33497E-01  0.00000E+00  0.00000E+00  0.00000E+00    0.15166E+03  0.00000E+00  0.00000E+00 -0.25206E+00  0.30611E+00  0.37295E+00
  0.64999E-01  0.15213E+03    0.65000E-01 -0.30979E-01 -0.34021E-01  0.00000E+00  0.00000E+00  0.00000E+00    0.15212E+03  0.00000E+00  0.00000E+00 -0.25055E+00  0.30894E+00  0.37355E+00
  0.65999E-01  0.15259E+03    0.66000E-01 -0.31455E-01 -0.34545E-01  0.00000E+00  0.00000E+00  0.00000E+00    0.15258E+03  0.00000E+00  0.00000E+00 -0.24902E+00  0.31178E+00  0.37415E+00
  0.66999E-01  0.15304E+03    0.67000E-01 -0.31930E-01 -0.35070E-01  0.00000E+00  0.00000E+00  0.00000E+00    0.15304E+03  0.00000E+00  0.00000E+00 -0.24746E+00  0.31464E+00  0.37475E+00
  0.67999E-01  0.15350E+03    0.68000E-01 -0.32406E-01 -0.35594E-01  0.00000E+00  0.00000E+00  0.00000E+00    0.15350E+03  0.00000E+00  0.00000E+00 -0.23816E+00  0.32075E+00  0.37543E+00
  0.68999E-01  0.15398E+03    0.69000E-01 -0.32881E-01 -0.36119E-01  0.00000E+00  0.00000E+00  0.00000E+00    0.15398E+03  0.00000E+00  0.00000E+00 -0.23692E+00  0.32391E+00  0.37604E+00
  0.69999E-01  0.15443E+03    0.70000E-01 -0.33357E-01 -0.36643E-01  0.00000E+00  0.00000E+00  0.00000E+00    0.15443E+03  0.00000E+00  0.00000E+00 -0.23538E+00  0.32687E+00  0.37663E+00
  0.70999E-01  0.15488E+03    0.71000E-01 -0.33832E-01 -0.37168E-01  0.00000E+00  0.00000E+00  0.00000E+00    0.15488E+03  0.00000E+00  0.00000E+00 -0.23370E+00  0.32985E+00  0.37725E+00
  0.71999E-01  0.15532E+03    0.72000E-01 -0.34308E-01 -0.37692E-01  0.00000E+00  0.00000E+00  0.00000E+00    0.15532E+03  0.00000E+00  0.00000E+00 -0.23200E+00  0.33283E+00  0.37787E+00
  0.72998E-01  0.15576E+03    0.73000E-01 -0.34783E-01 -0.38217E-01  0.00000E+00  0.00000E+00  0.00000E+00    0.15576E+03  0.00000E+00  0.00000E+00 -0.23028E+00  0.33584E+00  0.37850E+00
  0.73998E-01  0.15620E+03    0.74000E-01 -0.35259E-01 -0.38741E-01  0.00000E+00  0.00000E+00  0.00000E+00    0.15620E+03  0.00000E+00  0.00000E+00 -0.22854E+00  0.33886E+00  0.37913E+00
  0.74998E-01  0.15664E+03    0.75000E-01 -0.35734E-01 -0.39266E-01  0.00000E+00  0.00000E+00  0.00000E+00    0.15663E+03  0.00000E+00  0.00000E+00 -0.22678E+00  0.34190E+00  0.37976E+00
  0.75998E-01  0.15707E+03    0.76000E-01 -0.36209E-01 -0.39791E-01  0.00000E+00  0.00000E+00  0.00000E+00    0.15707E+03  0.00000E+00  0.00000E+00 -0.22499E+00  0.34496E+00  0.38040E+00
  0.76998E-01  0.15750E+03    0.77000E-01 -0.36685E-01 -0.40315E-01  0.00000E+00  0.00000E+00  0.00000E+00    0.15750E+03  0.00000E+00  0.00000E+00 -0.22317E+00  0.34803E+00  0.38105E+00
  0.77998E-01  0.15793E+03    0.78000E-01 -0.37160E-01 -0.40840E-01  0.00000E+00  0.00000E+00  0.00000E+00    0.15793E+03  0.00000E+00  0.00000E+00 -0.22133E+00  0.35113E+00  0.38171E+00
  0.78998E-01  0.15836E+03    0.79000E-01 -0.37635E-01 -0.41365E-01  0.00000E+00  0.00000E+00  0.00000E+00    0.15836E+03  0.00000E+00  0.00000E+00 -0.21947E+00  0.35424E+00  0.38237E+00
  0.79998E-01  0.15878E+03    0.80000E-01 -0.38111E-01 -0.41889E-01  0.00000E+00  0.00000E+00  0.00000E+00    0.15878E+03  0.00000E+00  0.00000E+00 -0.21759E+00  0.35737E+00  0.38304E+00
  0.80998E-01  0.15921E+03    0.81000E-01 -0.38586E-01 -0.42414E-01  0.00000E+00  0.00000E+00  0.00000E+00    0.15920E+03  0.00000E+00  0.00000E+00 -0.21568E+00  0.36052E+00  0.38372E+00
  0.81998E-01  0.15963E+03    0.82000E-01 -0.39061E-01 -0.42939E-01  0.00000E+00  0.00000E+00  0.00000E+00    0.15962E+03  0.00000E+00  0.00000E+00 -0.21375E+00  0.36369E+00  0.38440E+00
  0.82998E-01  0.16004E+03    0.83000E-01 -0.39536E-01 -0.43464E-01  0.00000E+00  0.00000E+00  0.00000E+00    0.16004E+03  0.00000E+00  0.00000E+00 -0.21180E+00  0.36688E+00  0.38510E+00
  0.83998E-01  0.16046E+03    0.84000E-01 -0.40011E-01 -0.43989E-01  0.00000E+00  0.00000E+00  0.00000E+00    0.16046E+03  0.00000E+00  0.00000E+00 -0.20982E+00  0.37008E+00  0.38581E+00
  0.84998E-01  0.16087E+03    0.85000E-01 -0.40487E-01 -0.44513E-01  0.00000E+00  0.00000E+00  0.00000E+00    0.16087E+03  0.00000E+00  0.00000E+00 -0.20783E+00  0.37331E+00  0.38652E+00
  0.85998E-01  0.16129E+03    0.86000E-01 -0.40962E-01 -0.45038E-01  0.00000E+00  0.00000E+00  0.00000E+00    0.16128E+03  0.00000E+00  0.00000E+00 -0.20581E+00  0.37656E+00  0.38725E+00
  0.86998E-01  0.16170E+03    0.87000E-01 -0.41437E-01 -0.45563E-01  0.00000E+00  0.00000E+00  0.00000E+00    0.16169E+03  0.00000E+00  0.00000E+00 -0.20377E+00  0.37982E+00  0.38799E+00
  0.87998E-01  0.16210E+03    0.88000E-01 -0.41912E-01 -0.46088E-01  0.00000E+00  0.00000E+00  0.00000E+00    0.16210E+03  0.00000E+00  0.00000E+00 -0.20172E+00  0.38311E+00  0.38874E+00
  0.88998E-01  0.16251E+03    0.89000E-01 -0.42387E-01 -0.46613E-01  0.00000E+00  0.00000E+00  0.00000E+00    0.16251E+03  0.00000E+00  0.00000E+00 -0.19964E+00  0.38642E+00  0.38950E+00
  0.89998E-01  0.16291E+03    0.90000E-01 -0.42862E-01 -0.47138E-01  0.00000E+00  0.00000E+00  0.00000E+00    0.16291E+03  0.00000E+00  0.00000E+00 -0.19754E+00  0.38974E+00  0.39027E+00
  0.90998E-01  0.16332E+03    0.91000E-01 -0.43337E-01 -0.47663E-01  0.00000E+00  0.00000E+00  0.00000E+00    0.16331E+03  0.00000E+00  0.00000E+00 -0.19542E+00  0.39309E+00  0.39106E+00
  0.91998E-01  0.16372E+03    0.92000E-01 -0.43812E-01 -0.48188E-01  0.00000E+00  0.00000E+00  0.00000E+00    0.16371E+03  0.00000E+00  0.00000E+00 -0.19328E+00  0.39646E+00  0.39186E+00
  0.92998E-01  0.16411E+03    0.93000E-01 -0.44287E-01 -0.48713E-01  0.00000E+00  0.00000E+00  0.00000E+00    0.16411E+03  0.00000E+00  0.00000E+00 -0.19113E+00  0.39985E+00  0.39267E+00
  0.93998E-01  0.16451E+03    0.94000E-01 -0.44762E-01 -0.49238E-01  0.00000E+00  0.00000E+00  0.00000E+00    0.16451E+03  0.00000E+00  0.00000E+00 -0.18895E+00  0.40326E+00  0.39350E+00
  0.94998E-01  0.16490E+03    0.95000E-01 -0.45237E-01 -0.49763E-01  0.00000E+00  0.00000E+00  0.00000E+00    0.16490E+03  0.00000E+00  0.00000E+00 -0.18676E+00  0.40670E+00  0.39435E+00
  0.95998E-01  0.16529E+03    0.96000E-01 -0.45711E-01 -0.50289E-01  0.00000E+00  0.00000E+00  0.00000E+00    0.16529E+03  0.00000E+00  0.00000E+00 -0.18454E+00  0.41015E+00  0.39520E+00
  0.96998E-01  0.16568E+03    0.97000E-01 -0.46186E-01 -0.50814E-01  0.00000E+00  0.00000E+00  0.00000E+00    0.16568E+03  0.00000E+00  0.00000E+00 -0.18231E+00  0.41363E+00  0.39608E+00
  0.97998E-01  0.16607E+03    0.98000E-01 -0.46661E-01 -0.51339E-01  0.00000E+00  0.00000E+00  0.00000E+00    0.16607E+03  0.00000E+00  0.00000E+00 -0.18007E+00  0.41713E+00  0.39697E+00
  0.98998E-01  0.16646E+03    0.99000E-01 -0.47136E-01 -0.51864E-01  0.00000E+00  0.00000E+00  0.00000E+00    0.16645E+03  0.00000E+00  0.00000E+00 -0.17780E+00  0.42065E+00  0.39788E+00
  0.99998E-01  0.16684E+03    0.10000E+00 -0.47611E-01 -0.52389E-01  0.00000E+00  0.00000E+00  0.00000E+00    0.16684E+03  0.00000E+00  0.00000E+00 -0.17552E+00  0.42420E+00  0.39880E+00
