          Evm          Svm            E11          E22          E33          E23          E13          E12         SCAU11       SCAU22       SCAU33       SCAU23       SCAU13       SCAU12      TEMP
  0.00000E+00  0.99449E+02    0.00000E+00  0.00000E+00  0.00000E+00  0.00000E+00  0.00000E+00  0.00000E+00    0.99446E+02  0.00000E+00  0.00000E+00 -0.23065E+00  0.14300E+00  0.27479E+00
  0.99998E-03  0.10008E+03    0.10000E-02 -0.47967E-03 -0.52033E-03  0.00000E+00  0.00000E+00  0.00000E+00    0.10008E+03  0.00000E+00  0.00000E+00 -0.23565E+00  0.14642E+00  0.27840E+00
  0.20000E-02  0.10068E+03    0.20000E-02 -0.95784E-03 -0.10422E-02  0.00000E+00  0.00000E+00  0.00000E+00    0.10067E+03  0.00000E+00  0.00000E+00 -0.23600E+00  0.14758E+00  0.28078E+00
  0.29999E-02  0.10133E+03    0.30000E-02 -0.14356E-02 -0.15644E-02  0.00000E+00  0.00000E+00  0.00000E+00    0.10133E+03  0.00000E+00  0.00000E+00 -0.23721E+00  0.14888E+00  0.28242E+00
  0.39999E-02  0.10198E+03    0.40000E-02 -0.19132E-02 -0.20868E-02  0.00000E+00  0.00000E+00  0.00000E+00    0.10198E+03  0.00000E+00  0.00000E+00 -0.23608E+00  0.15114E+00  0.28372E+00
  0.49999E-02  0.10264E+03    0.50000E-02 -0.23906E-02 -0.26094E-02  0.00000E+00  0.00000E+00  0.00000E+00    0.10264E+03  0.00000E+00  0.00000E+00 -0.23709E+00  0.15264E+00  0.28502E+00
  0.59999E-02  0.10329E+03    0.60000E-02 -0.28679E-02 -0.31321E-02  0.00000E+00  0.00000E+00  0.00000E+00    0.10329E+03  0.00000E+00  0.00000E+00 -0.23803E+00  0.15404E+00  0.28617E+00
  0.69998E-02  0.10393E+03    0.70000E-02 -0.33451E-02 -0.36549E-02  0.00000E+00  0.00000E+00  0.00000E+00    0.10393E+03  0.00000E+00  0.00000E+00 -0.23890E+00  0.15547E+00  0.28727E+00
  0.79998E-02  0.10457E+03    0.80000E-02 -0.38223E-02 -0.41777E-02  0.00000E+00  0.00000E+00  0.00000E+00    0.10457E+03  0.00000E+00  0.00000E+00 -0.23973E+00  0.15691E+00  0.28834E+00
  0.89998E-02  0.10521E+03    0.90000E-02 -0.42994E-02 -0.47006E-02  0.00000E+00  0.00000E+00  0.00000E+00    0.10520E+03  0.00000E+00  0.00000E+00 -0.24051E+00  0.15839E+00  0.28938E+00
  0.99998E-02  0.10584E+03    0.10000E-01 -0.47765E-02 -0.52235E-02  0.00000E+00  0.00000E+00  0.00000E+00    0.10584E+03  0.00000E+00  0.00000E+00 -0.24124E+00  0.15990E+00  0.29039E+00
  0.11000E-01  0.10647E+03    0.11000E-01 -0.52536E-02 -0.57464E-02  0.00000E+00  0.00000E+00  0.00000E+00    0.10647E+03  0.00000E+00  0.00000E+00 -0.24193E+00  0.16143E+00  0.29139E+00
  0.12000E-01  0.10709E+03    0.12000E-01 -0.57306E-02 -0.62694E-02  0.00000E+00  0.00000E+00  0.00000E+00    0.10709E+03  0.00000E+00  0.00000E+00 -0.24257E+00  0.16299E+00  0.29237E+00
  0.13000E-01  0.10771E+03    0.13000E-01 -0.62076E-02 -0.67924E-02  0.00000E+00  0.00000E+00  0.00000E+00    0.10771E+03  0.00000E+00  0.00000E+00 -0.24316E+00  0.16457E+00  0.29333E+00
  0.14000E-01  0.10833E+03    0.14000E-01 -0.66846E-02 -0.73154E-02  0.00000E+00  0.00000E+00  0.00000E+00    0.10833E+03  0.00000E+00  0.00000E+00 -0.24370E+00  0.16618E+00  0.29427E+00
  0.15000E-01  0.10894E+03    0.15000E-01 -0.71615E-02 -0.78385E-02  0.00000E+00  0.00000E+00  0.00000E+00    0.10894E+03  0.00000E+00  0.00000E+00 -0.24420E+00  0.16781E+00  0.29520E+00
  0.16000E-01  0.10955E+03    0.16000E-01 -0.76385E-02 -0.83615E-02  0.00000E+00  0.00000E+00  0.00000E+00    0.10955E+03  0.00000E+00  0.00000E+00 -0.24465E+00  0.16946E+00  0.29612E+00
  0.17000E-01  0.11016E+03    0.17000E-01 -0.81154E-02 -0.88846E-02  0.00000E+00  0.00000E+00  0.00000E+00    0.11015E+03  0.00000E+00  0.00000E+00 -0.24506E+00  0.17114E+00  0.29702E+00
  0.18000E-01  0.11076E+03    0.18000E-01 -0.85923E-02 -0.94077E-02  0.00000E+00  0.00000E+00  0.00000E+00    0.11076E+03  0.00000E+00  0.00000E+00 -0.24542E+00  0.17285E+00  0.29791E+00
  0.19000E-01  0.11136E+03    0.19000E-01 -0.90691E-02 -0.99309E-02  0.00000E+00  0.00000E+00  0.00000E+00    0.11135E+03  0.00000E+00  0.00000E+00 -0.24574E+00  0.17458E+00  0.29879E+00
  0.20000E-01  0.11195E+03    0.20000E-01 -0.95460E-02 -0.10454E-01  0.00000E+00  0.00000E+00  0.00000E+00    0.11195E+03  0.00000E+00  0.00000E+00 -0.24601E+00  0.17633E+00  0.29966E+00
  0.21000E-01  0.11254E+03    0.21000E-01 -0.10023E-01 -0.10977E-01  0.00000E+00  0.00000E+00  0.00000E+00    0.11254E+03  0.00000E+00  0.00000E+00 -0.24624E+00  0.17811E+00  0.30051E+00
  0.22000E-01  0.11313E+03    0.22000E-01 -0.10500E-01 -0.11500E-01  0.00000E+00  0.00000E+00  0.00000E+00    0.11313E+03  0.00000E+00  0.00000E+00 -0.24643E+00  0.17991E+00  0.30136E+00
  0.22999E-01  0.11371E+03    0.23000E-01 -0.10976E-01 -0.12024E-01  0.00000E+00  0.00000E+00  0.00000E+00    0.11371E+03  0.00000E+00  0.00000E+00 -0.24658E+00  0.18174E+00  0.30220E+00
  0.23999E-01  0.11429E+03    0.24000E-01 -0.11453E-01 -0.12547E-01  0.00000E+00  0.00000E+00  0.00000E+00    0.11429E+03  0.00000E+00  0.00000E+00 -0.24668E+00  0.18359E+00  0.30302E+00
  0.24999E-01  0.11487E+03    0.25000E-01 -0.11930E-01 -0.13070E-01  0.00000E+00  0.00000E+00  0.00000E+00    0.11487E+03  0.00000E+00  0.00000E+00 -0.24674E+00  0.18546E+00  0.30384E+00
  0.25999E-01  0.11545E+03    0.26000E-01 -0.12407E-01 -0.13593E-01  0.00000E+00  0.00000E+00  0.00000E+00    0.11544E+03  0.00000E+00  0.00000E+00 -0.24676E+00  0.18735E+00  0.30464E+00
  0.26999E-01  0.11602E+03    0.27000E-01 -0.12883E-01 -0.14117E-01  0.00000E+00  0.00000E+00  0.00000E+00    0.11601E+03  0.00000E+00  0.00000E+00 -0.24674E+00  0.18927E+00  0.30544E+00
  0.27999E-01  0.11658E+03    0.28000E-01 -0.13360E-01 -0.14640E-01  0.00000E+00  0.00000E+00  0.00000E+00    0.11658E+03  0.00000E+00  0.00000E+00 -0.24668E+00  0.19121E+00  0.30623E+00
  0.28999E-01  0.11715E+03    0.29000E-01 -0.13836E-01 -0.15164E-01  0.00000E+00  0.00000E+00  0.00000E+00    0.11714E+03  0.00000E+00  0.00000E+00 -0.24657E+00  0.19318E+00  0.30701E+00
  0.29999E-01  0.11771E+03    0.30000E-01 -0.14313E-01 -0.15687E-01  0.00000E+00  0.00000E+00  0.00000E+00    0.11770E+03  0.00000E+00  0.00000E+00 -0.24643E+00  0.19516E+00  0.30778E+00
  0.30999E-01  0.11826E+03    0.31000E-01 -0.14790E-01 -0.16210E-01  0.00000E+00  0.00000E+00  0.00000E+00    0.11826E+03  0.00000E+00  0.00000E+00 -0.24625E+00  0.19717E+00  0.30854E+00
  0.31999E-01  0.11882E+03    0.32000E-01 -0.15266E-01 -0.16734E-01  0.00000E+00  0.00000E+00  0.00000E+00    0.11881E+03  0.00000E+00  0.00000E+00 -0.24603E+00  0.19920E+00  0.30930E+00
  0.32999E-01  0.11937E+03    0.33000E-01 -0.15743E-01 -0.17257E-01  0.00000E+00  0.00000E+00  0.00000E+00    0.11937E+03  0.00000E+00  0.00000E+00 -0.24577E+00  0.20125E+00  0.31004E+00
  0.33999E-01  0.11991E+03    0.34000E-01 -0.16219E-01 -0.17781E-01  0.00000E+00  0.00000E+00  0.00000E+00    0.11991E+03  0.00000E+00  0.00000E+00 -0.24548E+00  0.20332E+00  0.31078E+00
  0.34999E-01  0.12046E+03    0.35000E-01 -0.16696E-01 -0.18304E-01  0.00000E+00  0.00000E+00  0.00000E+00    0.12046E+03  0.00000E+00  0.00000E+00 -0.24514E+00  0.20542E+00  0.31152E+00
  0.35999E-01  0.12100E+03    0.36000E-01 -0.17172E-01 -0.18828E-01  0.00000E+00  0.00000E+00  0.00000E+00    0.12100E+03  0.00000E+00  0.00000E+00 -0.24478E+00  0.20753E+00  0.31225E+00
  0.36999E-01  0.12154E+03    0.37000E-01 -0.17649E-01 -0.19351E-01  0.00000E+00  0.00000E+00  0.00000E+00    0.12153E+03  0.00000E+00  0.00000E+00 -0.24437E+00  0.20967E+00  0.31297E+00
  0.37999E-01  0.12207E+03    0.38000E-01 -0.18125E-01 -0.19875E-01  0.00000E+00  0.00000E+00  0.00000E+00    0.12207E+03  0.00000E+00  0.00000E+00 -0.24393E+00  0.21183E+00  0.31368E+00
  0.38999E-01  0.12256E+03    0.39000E-01 -0.18601E-01 -0.20399E-01  0.00000E+00  0.00000E+00  0.00000E+00    0.12256E+03  0.00000E+00  0.00000E+00 -0.24684E+00  0.21232E+00  0.31438E+00
  0.39999E-01  0.12313E+03    0.40000E-01 -0.19078E-01 -0.20922E-01  0.00000E+00  0.00000E+00  0.00000E+00    0.12312E+03  0.00000E+00  0.00000E+00 -0.24316E+00  0.21605E+00  0.31505E+00
  0.40999E-01  0.12362E+03    0.41000E-01 -0.19554E-01 -0.21446E-01  0.00000E+00  0.00000E+00  0.00000E+00    0.12361E+03  0.00000E+00  0.00000E+00 -0.24581E+00  0.21668E+00  0.31579E+00
  0.41999E-01  0.12414E+03    0.42000E-01 -0.20030E-01 -0.21970E-01  0.00000E+00  0.00000E+00  0.00000E+00    0.12414E+03  0.00000E+00  0.00000E+00 -0.24531E+00  0.21881E+00  0.31649E+00
  0.42999E-01  0.12466E+03    0.43000E-01 -0.20507E-01 -0.22493E-01  0.00000E+00  0.00000E+00  0.00000E+00    0.12466E+03  0.00000E+00  0.00000E+00 -0.24470E+00  0.22104E+00  0.31718E+00
  0.43999E-01  0.12518E+03    0.44000E-01 -0.20983E-01 -0.23017E-01  0.00000E+00  0.00000E+00  0.00000E+00    0.12517E+03  0.00000E+00  0.00000E+00 -0.24406E+00  0.22329E+00  0.31787E+00
  0.44999E-01  0.12569E+03    0.45000E-01 -0.21459E-01 -0.23541E-01  0.00000E+00  0.00000E+00  0.00000E+00    0.12569E+03  0.00000E+00  0.00000E+00 -0.24339E+00  0.22556E+00  0.31856E+00
  0.45999E-01  0.12620E+03    0.46000E-01 -0.21935E-01 -0.24065E-01  0.00000E+00  0.00000E+00  0.00000E+00    0.12620E+03  0.00000E+00  0.00000E+00 -0.24268E+00  0.22785E+00  0.31924E+00
  0.46999E-01  0.12671E+03    0.47000E-01 -0.22412E-01 -0.24588E-01  0.00000E+00  0.00000E+00  0.00000E+00    0.12671E+03  0.00000E+00  0.00000E+00 -0.24193E+00  0.23016E+00  0.31992E+00
  0.47999E-01  0.12721E+03    0.48000E-01 -0.22888E-01 -0.25112E-01  0.00000E+00  0.00000E+00  0.00000E+00    0.12721E+03  0.00000E+00  0.00000E+00 -0.24116E+00  0.23249E+00  0.32059E+00
  0.48999E-01  0.12774E+03    0.49000E-01 -0.23364E-01 -0.25636E-01  0.00000E+00  0.00000E+00  0.00000E+00    0.12773E+03  0.00000E+00  0.00000E+00 -0.23710E+00  0.23656E+00  0.32115E+00
  0.49999E-01  0.12821E+03    0.50000E-01 -0.23840E-01 -0.26160E-01  0.00000E+00  0.00000E+00  0.00000E+00    0.12821E+03  0.00000E+00  0.00000E+00 -0.23944E+00  0.23728E+00  0.32194E+00
  0.50999E-01  0.12873E+03    0.51000E-01 -0.24316E-01 -0.26684E-01  0.00000E+00  0.00000E+00  0.00000E+00    0.12873E+03  0.00000E+00  0.00000E+00 -0.23540E+00  0.24134E+00  0.32247E+00
  0.51999E-01  0.12920E+03    0.52000E-01 -0.24792E-01 -0.27208E-01  0.00000E+00  0.00000E+00  0.00000E+00    0.12920E+03  0.00000E+00  0.00000E+00 -0.23767E+00  0.24207E+00  0.32327E+00
  0.52999E-01  0.12972E+03    0.53000E-01 -0.25268E-01 -0.27732E-01  0.00000E+00  0.00000E+00  0.00000E+00    0.12971E+03  0.00000E+00  0.00000E+00 -0.23357E+00  0.24620E+00  0.32378E+00
  0.53999E-01  0.13018E+03    0.54000E-01 -0.25744E-01 -0.28256E-01  0.00000E+00  0.00000E+00  0.00000E+00    0.13018E+03  0.00000E+00  0.00000E+00 -0.23578E+00  0.24693E+00  0.32459E+00
  0.54999E-01  0.13066E+03    0.55000E-01 -0.26220E-01 -0.28780E-01  0.00000E+00  0.00000E+00  0.00000E+00    0.13065E+03  0.00000E+00  0.00000E+00 -0.23524E+00  0.24913E+00  0.32522E+00
  0.55999E-01  0.13115E+03    0.56000E-01 -0.26696E-01 -0.29304E-01  0.00000E+00  0.00000E+00  0.00000E+00    0.13115E+03  0.00000E+00  0.00000E+00 -0.23386E+00  0.25176E+00  0.32590E+00
  0.56999E-01  0.13162E+03    0.57000E-01 -0.27172E-01 -0.29828E-01  0.00000E+00  0.00000E+00  0.00000E+00    0.13162E+03  0.00000E+00  0.00000E+00 -0.23317E+00  0.25408E+00  0.32653E+00
  0.57999E-01  0.13211E+03    0.58000E-01 -0.27648E-01 -0.30352E-01  0.00000E+00  0.00000E+00  0.00000E+00    0.13211E+03  0.00000E+00  0.00000E+00 -0.23173E+00  0.25675E+00  0.32720E+00
  0.58999E-01  0.13257E+03    0.59000E-01 -0.28124E-01 -0.30876E-01  0.00000E+00  0.00000E+00  0.00000E+00    0.13257E+03  0.00000E+00  0.00000E+00 -0.23099E+00  0.25910E+00  0.32783E+00
  0.59999E-01  0.13306E+03    0.60000E-01 -0.28600E-01 -0.31400E-01  0.00000E+00  0.00000E+00  0.00000E+00    0.13305E+03  0.00000E+00  0.00000E+00 -0.22948E+00  0.26181E+00  0.32850E+00
  0.60999E-01  0.13351E+03    0.61000E-01 -0.29075E-01 -0.31925E-01  0.00000E+00  0.00000E+00  0.00000E+00    0.13351E+03  0.00000E+00  0.00000E+00 -0.22869E+00  0.26419E+00  0.32914E+00
  0.61999E-01  0.13399E+03    0.62000E-01 -0.29551E-01 -0.32449E-01  0.00000E+00  0.00000E+00  0.00000E+00    0.13399E+03  0.00000E+00  0.00000E+00 -0.22713E+00  0.26693E+00  0.32980E+00
  0.62999E-01  0.13444E+03    0.63000E-01 -0.30027E-01 -0.32973E-01  0.00000E+00  0.00000E+00  0.00000E+00    0.13444E+03  0.00000E+00  0.00000E+00 -0.22629E+00  0.26935E+00  0.33044E+00
  0.63999E-01  0.13490E+03    0.64000E-01 -0.30503E-01 -0.33497E-01  0.00000E+00  0.00000E+00  0.00000E+00    0.13490E+03  0.00000E+00  0.00000E+00 -0.22511E+00  0.27193E+00  0.33109E+00
  0.64999E-01  0.13536E+03    0.65000E-01 -0.30978E-01 -0.34022E-01  0.00000E+00  0.00000E+00  0.00000E+00    0.13536E+03  0.00000E+00  0.00000E+00 -0.22386E+00  0.27454E+00  0.33174E+00
  0.65999E-01  0.13582E+03    0.66000E-01 -0.31454E-01 -0.34546E-01  0.00000E+00  0.00000E+00  0.00000E+00    0.13582E+03  0.00000E+00  0.00000E+00 -0.22256E+00  0.27718E+00  0.33239E+00
  0.66999E-01  0.13627E+03    0.67000E-01 -0.31930E-01 -0.35070E-01  0.00000E+00  0.00000E+00  0.00000E+00    0.13627E+03  0.00000E+00  0.00000E+00 -0.22124E+00  0.27983E+00  0.33305E+00
  0.67999E-01  0.13673E+03    0.68000E-01 -0.32405E-01 -0.35595E-01  0.00000E+00  0.00000E+00  0.00000E+00    0.13672E+03  0.00000E+00  0.00000E+00 -0.21988E+00  0.28251E+00  0.33371E+00
  0.68999E-01  0.13718E+03    0.69000E-01 -0.32881E-01 -0.36119E-01  0.00000E+00  0.00000E+00  0.00000E+00    0.13717E+03  0.00000E+00  0.00000E+00 -0.21851E+00  0.28519E+00  0.33436E+00
  0.69999E-01  0.13762E+03    0.70000E-01 -0.33357E-01 -0.36643E-01  0.00000E+00  0.00000E+00  0.00000E+00    0.13762E+03  0.00000E+00  0.00000E+00 -0.21711E+00  0.28790E+00  0.33502E+00
  0.70999E-01  0.13807E+03    0.71000E-01 -0.33832E-01 -0.37168E-01  0.00000E+00  0.00000E+00  0.00000E+00    0.13806E+03  0.00000E+00  0.00000E+00 -0.21569E+00  0.29062E+00  0.33569E+00
  0.71999E-01  0.13851E+03    0.72000E-01 -0.34308E-01 -0.37692E-01  0.00000E+00  0.00000E+00  0.00000E+00    0.13851E+03  0.00000E+00  0.00000E+00 -0.21424E+00  0.29335E+00  0.33635E+00
  0.72998E-01  0.13895E+03    0.73000E-01 -0.34783E-01 -0.38217E-01  0.00000E+00  0.00000E+00  0.00000E+00    0.13895E+03  0.00000E+00  0.00000E+00 -0.21277E+00  0.29611E+00  0.33702E+00
  0.73998E-01  0.13939E+03    0.74000E-01 -0.35259E-01 -0.38741E-01  0.00000E+00  0.00000E+00  0.00000E+00    0.13938E+03  0.00000E+00  0.00000E+00 -0.21127E+00  0.29887E+00  0.33769E+00
  0.74998E-01  0.13982E+03    0.75000E-01 -0.35734E-01 -0.39266E-01  0.00000E+00  0.00000E+00  0.00000E+00    0.13982E+03  0.00000E+00  0.00000E+00 -0.20975E+00  0.30166E+00  0.33837E+00
  0.75998E-01  0.14026E+03    0.76000E-01 -0.36209E-01 -0.39791E-01  0.00000E+00  0.00000E+00  0.00000E+00    0.14025E+03  0.00000E+00  0.00000E+00 -0.20821E+00  0.30447E+00  0.33905E+00
  0.76998E-01  0.14069E+03    0.77000E-01 -0.36685E-01 -0.40315E-01  0.00000E+00  0.00000E+00  0.00000E+00    0.14068E+03  0.00000E+00  0.00000E+00 -0.20664E+00  0.30729E+00  0.33974E+00
  0.77998E-01  0.14111E+03    0.78000E-01 -0.37160E-01 -0.40840E-01  0.00000E+00  0.00000E+00  0.00000E+00    0.14111E+03  0.00000E+00  0.00000E+00 -0.20505E+00  0.31013E+00  0.34044E+00
  0.78998E-01  0.14154E+03    0.79000E-01 -0.37635E-01 -0.41365E-01  0.00000E+00  0.00000E+00  0.00000E+00    0.14154E+03  0.00000E+00  0.00000E+00 -0.20343E+00  0.31298E+00  0.34113E+00
  0.79998E-01  0.14197E+03    0.80000E-01 -0.38111E-01 -0.41889E-01  0.00000E+00  0.00000E+00  0.00000E+00    0.14196E+03  0.00000E+00  0.00000E+00 -0.19416E+00  0.31936E+00  0.34188E+00
  0.80998E-01  0.14236E+03    0.81000E-01 -0.38586E-01 -0.42414E-01  0.00000E+00  0.00000E+00  0.00000E+00    0.14236E+03  0.00000E+00  0.00000E+00 -0.19450E+00  0.32184E+00  0.34268E+00
  0.81998E-01  0.14277E+03    0.82000E-01 -0.39061E-01 -0.42939E-01  0.00000E+00  0.00000E+00  0.00000E+00    0.14277E+03  0.00000E+00  0.00000E+00 -0.19250E+00  0.32485E+00  0.34343E+00
  0.82998E-01  0.14319E+03    0.83000E-01 -0.39536E-01 -0.43464E-01  0.00000E+00  0.00000E+00  0.00000E+00    0.14319E+03  0.00000E+00  0.00000E+00 -0.19079E+00  0.32781E+00  0.34416E+00
  0.83998E-01  0.14360E+03    0.84000E-01 -0.40012E-01 -0.43988E-01  0.00000E+00  0.00000E+00  0.00000E+00    0.14360E+03  0.00000E+00  0.00000E+00 -0.18907E+00  0.33078E+00  0.34490E+00
  0.84998E-01  0.14407E+03    0.85000E-01 -0.40487E-01 -0.44513E-01  0.00000E+00  0.00000E+00  0.00000E+00    0.14407E+03  0.00000E+00  0.00000E+00 -0.18559E+00  0.33447E+00  0.34556E+00
  0.85998E-01  0.14449E+03    0.86000E-01 -0.40962E-01 -0.45038E-01  0.00000E+00  0.00000E+00  0.00000E+00    0.14449E+03  0.00000E+00  0.00000E+00 -0.18427E+00  0.33738E+00  0.34629E+00
  0.86998E-01  0.14490E+03    0.87000E-01 -0.41437E-01 -0.45563E-01  0.00000E+00  0.00000E+00  0.00000E+00    0.14490E+03  0.00000E+00  0.00000E+00 -0.18249E+00  0.34041E+00  0.34704E+00
  0.87998E-01  0.14531E+03    0.88000E-01 -0.41912E-01 -0.46088E-01  0.00000E+00  0.00000E+00  0.00000E+00    0.14531E+03  0.00000E+00  0.00000E+00 -0.18067E+00  0.34346E+00  0.34782E+00
  0.88998E-01  0.14571E+03    0.89000E-01 -0.42387E-01 -0.46613E-01  0.00000E+00  0.00000E+00  0.00000E+00    0.14571E+03  0.00000E+00  0.00000E+00 -0.17884E+00  0.34653E+00  0.34860E+00
  0.89998E-01  0.14612E+03    0.90000E-01 -0.42862E-01 -0.47138E-01  0.00000E+00  0.00000E+00  0.00000E+00    0.14611E+03  0.00000E+00  0.00000E+00 -0.17700E+00  0.34962E+00  0.34939E+00
  0.90998E-01  0.14652E+03    0.91000E-01 -0.43337E-01 -0.47663E-01  0.00000E+00  0.00000E+00  0.00000E+00    0.14651E+03  0.00000E+00  0.00000E+00 -0.17513E+00  0.35273E+00  0.35020E+00
  0.91998E-01  0.14691E+03    0.92000E-01 -0.43812E-01 -0.48188E-01  0.00000E+00  0.00000E+00  0.00000E+00    0.14691E+03  0.00000E+00  0.00000E+00 -0.17324E+00  0.35586E+00  0.35101E+00
  0.92998E-01  0.14731E+03    0.93000E-01 -0.44287E-01 -0.48713E-01  0.00000E+00  0.00000E+00  0.00000E+00    0.14731E+03  0.00000E+00  0.00000E+00 -0.17134E+00  0.35900E+00  0.35184E+00
  0.93998E-01  0.14770E+03    0.94000E-01 -0.44762E-01 -0.49238E-01  0.00000E+00  0.00000E+00  0.00000E+00    0.14770E+03  0.00000E+00  0.00000E+00 -0.16941E+00  0.36217E+00  0.35268E+00
  0.94998E-01  0.14810E+03    0.95000E-01 -0.45237E-01 -0.49763E-01  0.00000E+00  0.00000E+00  0.00000E+00    0.14809E+03  0.00000E+00  0.00000E+00 -0.16747E+00  0.36535E+00  0.35353E+00
  0.95998E-01  0.14849E+03    0.96000E-01 -0.45712E-01 -0.50288E-01  0.00000E+00  0.00000E+00  0.00000E+00    0.14848E+03  0.00000E+00  0.00000E+00 -0.16551E+00  0.36856E+00  0.35440E+00
  0.96998E-01  0.14888E+03    0.97000E-01 -0.46187E-01 -0.50813E-01  0.00000E+00  0.00000E+00  0.00000E+00    0.14887E+03  0.00000E+00  0.00000E+00 -0.16354E+00  0.37179E+00  0.35528E+00
  0.97998E-01  0.14926E+03    0.98000E-01 -0.46661E-01 -0.51339E-01  0.00000E+00  0.00000E+00  0.00000E+00    0.14926E+03  0.00000E+00  0.00000E+00 -0.16154E+00  0.37504E+00  0.35617E+00
  0.98998E-01  0.14965E+03    0.99000E-01 -0.47136E-01 -0.51864E-01  0.00000E+00  0.00000E+00  0.00000E+00    0.14964E+03  0.00000E+00  0.00000E+00 -0.15953E+00  0.37831E+00  0.35708E+00
  0.99998E-01  0.15003E+03    0.10000E+00 -0.47611E-01 -0.52389E-01  0.00000E+00  0.00000E+00  0.00000E+00    0.15003E+03  0.00000E+00  0.00000E+00 -0.15750E+00  0.38160E+00  0.35800E+00
