          Evm          Svm            E11          E22          E33          E23          E13          E12         SCAU11       SCAU22       SCAU33       SCAU23       SCAU13       SCAU12      TEMP
  0.00000E+00  0.10251E+03    0.00000E+00  0.00000E+00  0.00000E+00  0.00000E+00  0.00000E+00  0.00000E+00    0.10250E+03  0.00000E+00  0.00000E+00 -0.23774E+00  0.14740E+00  0.28324E+00
  0.99998E-03  0.10314E+03    0.10000E-02 -0.47967E-03 -0.52033E-03  0.00000E+00  0.00000E+00  0.00000E+00    0.10313E+03  0.00000E+00  0.00000E+00 -0.24276E+00  0.15090E+00  0.28691E+00
  0.20000E-02  0.10373E+03    0.20000E-02 -0.95784E-03 -0.10422E-02  0.00000E+00  0.00000E+00  0.00000E+00    0.10373E+03  0.00000E+00  0.00000E+00 -0.24309E+00  0.15206E+00  0.28932E+00
  0.29999E-02  0.10438E+03    0.30000E-02 -0.14356E-02 -0.15644E-02  0.00000E+00  0.00000E+00  0.00000E+00    0.10438E+03  0.00000E+00  0.00000E+00 -0.24211E+00  0.15434E+00  0.29084E+00
  0.39999E-02  0.10505E+03    0.40000E-02 -0.19132E-02 -0.20868E-02  0.00000E+00  0.00000E+00  0.00000E+00    0.10504E+03  0.00000E+00  0.00000E+00 -0.24314E+00  0.15581E+00  0.29228E+00
  0.49999E-02  0.10570E+03    0.50000E-02 -0.23906E-02 -0.26094E-02  0.00000E+00  0.00000E+00  0.00000E+00    0.10570E+03  0.00000E+00  0.00000E+00 -0.24411E+00  0.15719E+00  0.29349E+00
  0.59999E-02  0.10635E+03    0.60000E-02 -0.28679E-02 -0.31321E-02  0.00000E+00  0.00000E+00  0.00000E+00    0.10634E+03  0.00000E+00  0.00000E+00 -0.24501E+00  0.15861E+00  0.29464E+00
  0.69998E-02  0.10699E+03    0.70000E-02 -0.33452E-02 -0.36548E-02  0.00000E+00  0.00000E+00  0.00000E+00    0.10699E+03  0.00000E+00  0.00000E+00 -0.24586E+00  0.16005E+00  0.29573E+00
  0.79998E-02  0.10763E+03    0.80000E-02 -0.38224E-02 -0.41776E-02  0.00000E+00  0.00000E+00  0.00000E+00    0.10763E+03  0.00000E+00  0.00000E+00 -0.24666E+00  0.16152E+00  0.29679E+00
  0.89998E-02  0.10827E+03    0.90000E-02 -0.42995E-02 -0.47005E-02  0.00000E+00  0.00000E+00  0.00000E+00    0.10826E+03  0.00000E+00  0.00000E+00 -0.24741E+00  0.16302E+00  0.29782E+00
  0.99998E-02  0.10890E+03    0.10000E-01 -0.47766E-02 -0.52234E-02  0.00000E+00  0.00000E+00  0.00000E+00    0.10890E+03  0.00000E+00  0.00000E+00 -0.24812E+00  0.16454E+00  0.29882E+00
  0.11000E-01  0.10953E+03    0.11000E-01 -0.52537E-02 -0.57463E-02  0.00000E+00  0.00000E+00  0.00000E+00    0.10952E+03  0.00000E+00  0.00000E+00 -0.24878E+00  0.16609E+00  0.29980E+00
  0.12000E-01  0.11015E+03    0.12000E-01 -0.57307E-02 -0.62693E-02  0.00000E+00  0.00000E+00  0.00000E+00    0.11015E+03  0.00000E+00  0.00000E+00 -0.24938E+00  0.16767E+00  0.30076E+00
  0.13000E-01  0.11077E+03    0.13000E-01 -0.62077E-02 -0.67923E-02  0.00000E+00  0.00000E+00  0.00000E+00    0.11077E+03  0.00000E+00  0.00000E+00 -0.24995E+00  0.16927E+00  0.30171E+00
  0.14000E-01  0.11139E+03    0.14000E-01 -0.66847E-02 -0.73153E-02  0.00000E+00  0.00000E+00  0.00000E+00    0.11139E+03  0.00000E+00  0.00000E+00 -0.25046E+00  0.17090E+00  0.30264E+00
  0.15000E-01  0.11200E+03    0.15000E-01 -0.71616E-02 -0.78384E-02  0.00000E+00  0.00000E+00  0.00000E+00    0.11200E+03  0.00000E+00  0.00000E+00 -0.25093E+00  0.17255E+00  0.30355E+00
  0.16000E-01  0.11261E+03    0.16000E-01 -0.76386E-02 -0.83614E-02  0.00000E+00  0.00000E+00  0.00000E+00    0.11261E+03  0.00000E+00  0.00000E+00 -0.25136E+00  0.17423E+00  0.30445E+00
  0.17000E-01  0.11322E+03    0.17000E-01 -0.81155E-02 -0.88845E-02  0.00000E+00  0.00000E+00  0.00000E+00    0.11321E+03  0.00000E+00  0.00000E+00 -0.25174E+00  0.17594E+00  0.30533E+00
  0.18000E-01  0.11382E+03    0.18000E-01 -0.85924E-02 -0.94076E-02  0.00000E+00  0.00000E+00  0.00000E+00    0.11382E+03  0.00000E+00  0.00000E+00 -0.25207E+00  0.17767E+00  0.30621E+00
  0.19000E-01  0.11442E+03    0.19000E-01 -0.90692E-02 -0.99308E-02  0.00000E+00  0.00000E+00  0.00000E+00    0.11441E+03  0.00000E+00  0.00000E+00 -0.25236E+00  0.17942E+00  0.30707E+00
  0.20000E-01  0.11501E+03    0.20000E-01 -0.95461E-02 -0.10454E-01  0.00000E+00  0.00000E+00  0.00000E+00    0.11501E+03  0.00000E+00  0.00000E+00 -0.25260E+00  0.18120E+00  0.30792E+00
  0.21000E-01  0.11560E+03    0.21000E-01 -0.10023E-01 -0.10977E-01  0.00000E+00  0.00000E+00  0.00000E+00    0.11560E+03  0.00000E+00  0.00000E+00 -0.25280E+00  0.18300E+00  0.30876E+00
  0.22000E-01  0.11619E+03    0.22000E-01 -0.10500E-01 -0.11500E-01  0.00000E+00  0.00000E+00  0.00000E+00    0.11619E+03  0.00000E+00  0.00000E+00 -0.25296E+00  0.18483E+00  0.30959E+00
  0.22999E-01  0.11677E+03    0.23000E-01 -0.10976E-01 -0.12024E-01  0.00000E+00  0.00000E+00  0.00000E+00    0.11677E+03  0.00000E+00  0.00000E+00 -0.25307E+00  0.18668E+00  0.31041E+00
  0.23999E-01  0.11736E+03    0.24000E-01 -0.11453E-01 -0.12547E-01  0.00000E+00  0.00000E+00  0.00000E+00    0.11735E+03  0.00000E+00  0.00000E+00 -0.25314E+00  0.18855E+00  0.31121E+00
  0.24999E-01  0.11793E+03    0.25000E-01 -0.11930E-01 -0.13070E-01  0.00000E+00  0.00000E+00  0.00000E+00    0.11793E+03  0.00000E+00  0.00000E+00 -0.25316E+00  0.19045E+00  0.31202E+00
  0.25999E-01  0.11851E+03    0.26000E-01 -0.12407E-01 -0.13593E-01  0.00000E+00  0.00000E+00  0.00000E+00    0.11850E+03  0.00000E+00  0.00000E+00 -0.25315E+00  0.19237E+00  0.31281E+00
  0.26999E-01  0.11908E+03    0.27000E-01 -0.12883E-01 -0.14117E-01  0.00000E+00  0.00000E+00  0.00000E+00    0.11907E+03  0.00000E+00  0.00000E+00 -0.25309E+00  0.19432E+00  0.31359E+00
  0.27999E-01  0.11964E+03    0.28000E-01 -0.13360E-01 -0.14640E-01  0.00000E+00  0.00000E+00  0.00000E+00    0.11964E+03  0.00000E+00  0.00000E+00 -0.25299E+00  0.19629E+00  0.31436E+00
  0.28999E-01  0.12021E+03    0.29000E-01 -0.13837E-01 -0.15163E-01  0.00000E+00  0.00000E+00  0.00000E+00    0.12021E+03  0.00000E+00  0.00000E+00 -0.25286E+00  0.19828E+00  0.31512E+00
  0.29999E-01  0.12077E+03    0.30000E-01 -0.14313E-01 -0.15687E-01  0.00000E+00  0.00000E+00  0.00000E+00    0.12077E+03  0.00000E+00  0.00000E+00 -0.25268E+00  0.20029E+00  0.31588E+00
  0.30999E-01  0.12133E+03    0.31000E-01 -0.14790E-01 -0.16210E-01  0.00000E+00  0.00000E+00  0.00000E+00    0.12132E+03  0.00000E+00  0.00000E+00 -0.25247E+00  0.20233E+00  0.31662E+00
  0.31999E-01  0.12188E+03    0.32000E-01 -0.15266E-01 -0.16734E-01  0.00000E+00  0.00000E+00  0.00000E+00    0.12188E+03  0.00000E+00  0.00000E+00 -0.25221E+00  0.20439E+00  0.31736E+00
  0.32999E-01  0.12243E+03    0.33000E-01 -0.15743E-01 -0.17257E-01  0.00000E+00  0.00000E+00  0.00000E+00    0.12243E+03  0.00000E+00  0.00000E+00 -0.25192E+00  0.20647E+00  0.31809E+00
  0.33999E-01  0.12298E+03    0.34000E-01 -0.16219E-01 -0.17781E-01  0.00000E+00  0.00000E+00  0.00000E+00    0.12297E+03  0.00000E+00  0.00000E+00 -0.25159E+00  0.20857E+00  0.31882E+00
  0.34999E-01  0.12352E+03    0.35000E-01 -0.16696E-01 -0.18304E-01  0.00000E+00  0.00000E+00  0.00000E+00    0.12352E+03  0.00000E+00  0.00000E+00 -0.25122E+00  0.21070E+00  0.31954E+00
  0.35999E-01  0.12402E+03    0.36000E-01 -0.17172E-01 -0.18828E-01  0.00000E+00  0.00000E+00  0.00000E+00    0.12402E+03  0.00000E+00  0.00000E+00 -0.25420E+00  0.21121E+00  0.32023E+00
  0.36999E-01  0.12459E+03    0.37000E-01 -0.17649E-01 -0.19351E-01  0.00000E+00  0.00000E+00  0.00000E+00    0.12459E+03  0.00000E+00  0.00000E+00 -0.25059E+00  0.21486E+00  0.32092E+00
  0.37999E-01  0.12509E+03    0.38000E-01 -0.18125E-01 -0.19875E-01  0.00000E+00  0.00000E+00  0.00000E+00    0.12509E+03  0.00000E+00  0.00000E+00 -0.25330E+00  0.21551E+00  0.32164E+00
  0.38999E-01  0.12562E+03    0.39000E-01 -0.18602E-01 -0.20398E-01  0.00000E+00  0.00000E+00  0.00000E+00    0.12562E+03  0.00000E+00  0.00000E+00 -0.25288E+00  0.21761E+00  0.32234E+00
  0.39999E-01  0.12615E+03    0.40000E-01 -0.19078E-01 -0.20922E-01  0.00000E+00  0.00000E+00  0.00000E+00    0.12615E+03  0.00000E+00  0.00000E+00 -0.25234E+00  0.21981E+00  0.32303E+00
  0.40999E-01  0.12668E+03    0.41000E-01 -0.19554E-01 -0.21446E-01  0.00000E+00  0.00000E+00  0.00000E+00    0.12668E+03  0.00000E+00  0.00000E+00 -0.25176E+00  0.22203E+00  0.32372E+00
  0.41999E-01  0.12720E+03    0.42000E-01 -0.20031E-01 -0.21969E-01  0.00000E+00  0.00000E+00  0.00000E+00    0.12720E+03  0.00000E+00  0.00000E+00 -0.25115E+00  0.22428E+00  0.32441E+00
  0.42999E-01  0.12772E+03    0.43000E-01 -0.20507E-01 -0.22493E-01  0.00000E+00  0.00000E+00  0.00000E+00    0.12772E+03  0.00000E+00  0.00000E+00 -0.25050E+00  0.22654E+00  0.32509E+00
  0.43999E-01  0.12824E+03    0.44000E-01 -0.20983E-01 -0.23017E-01  0.00000E+00  0.00000E+00  0.00000E+00    0.12824E+03  0.00000E+00  0.00000E+00 -0.24982E+00  0.22883E+00  0.32577E+00
  0.44999E-01  0.12875E+03    0.45000E-01 -0.21459E-01 -0.23541E-01  0.00000E+00  0.00000E+00  0.00000E+00    0.12875E+03  0.00000E+00  0.00000E+00 -0.24910E+00  0.23114E+00  0.32644E+00
  0.45999E-01  0.12929E+03    0.46000E-01 -0.21936E-01 -0.24064E-01  0.00000E+00  0.00000E+00  0.00000E+00    0.12928E+03  0.00000E+00  0.00000E+00 -0.24509E+00  0.23514E+00  0.32700E+00
  0.46999E-01  0.12977E+03    0.47000E-01 -0.22412E-01 -0.24588E-01  0.00000E+00  0.00000E+00  0.00000E+00    0.12977E+03  0.00000E+00  0.00000E+00 -0.24750E+00  0.23589E+00  0.32777E+00
  0.47999E-01  0.13030E+03    0.48000E-01 -0.22888E-01 -0.25112E-01  0.00000E+00  0.00000E+00  0.00000E+00    0.13030E+03  0.00000E+00  0.00000E+00 -0.24350E+00  0.23988E+00  0.32832E+00
  0.48999E-01  0.13078E+03    0.49000E-01 -0.23364E-01 -0.25636E-01  0.00000E+00  0.00000E+00  0.00000E+00    0.13077E+03  0.00000E+00  0.00000E+00 -0.24583E+00  0.24063E+00  0.32910E+00
  0.49999E-01  0.13130E+03    0.50000E-01 -0.23840E-01 -0.26160E-01  0.00000E+00  0.00000E+00  0.00000E+00    0.13130E+03  0.00000E+00  0.00000E+00 -0.24178E+00  0.24470E+00  0.32962E+00
  0.50999E-01  0.13177E+03    0.51000E-01 -0.24316E-01 -0.26684E-01  0.00000E+00  0.00000E+00  0.00000E+00    0.13177E+03  0.00000E+00  0.00000E+00 -0.24404E+00  0.24544E+00  0.33041E+00
  0.51999E-01  0.13226E+03    0.52000E-01 -0.24792E-01 -0.27208E-01  0.00000E+00  0.00000E+00  0.00000E+00    0.13225E+03  0.00000E+00  0.00000E+00 -0.24355E+00  0.24764E+00  0.33103E+00
  0.52999E-01  0.13276E+03    0.53000E-01 -0.25268E-01 -0.27732E-01  0.00000E+00  0.00000E+00  0.00000E+00    0.13276E+03  0.00000E+00  0.00000E+00 -0.24222E+00  0.25024E+00  0.33170E+00
  0.53999E-01  0.13323E+03    0.54000E-01 -0.25744E-01 -0.28256E-01  0.00000E+00  0.00000E+00  0.00000E+00    0.13323E+03  0.00000E+00  0.00000E+00 -0.24159E+00  0.25256E+00  0.33232E+00
  0.54999E-01  0.13373E+03    0.55000E-01 -0.26220E-01 -0.28780E-01  0.00000E+00  0.00000E+00  0.00000E+00    0.13373E+03  0.00000E+00  0.00000E+00 -0.24019E+00  0.25520E+00  0.33299E+00
  0.55999E-01  0.13420E+03    0.56000E-01 -0.26696E-01 -0.29304E-01  0.00000E+00  0.00000E+00  0.00000E+00    0.13420E+03  0.00000E+00  0.00000E+00 -0.23949E+00  0.25754E+00  0.33361E+00
  0.56999E-01  0.13470E+03    0.57000E-01 -0.27172E-01 -0.29828E-01  0.00000E+00  0.00000E+00  0.00000E+00    0.13469E+03  0.00000E+00  0.00000E+00 -0.23803E+00  0.26023E+00  0.33428E+00
  0.57999E-01  0.13516E+03    0.58000E-01 -0.27648E-01 -0.30352E-01  0.00000E+00  0.00000E+00  0.00000E+00    0.13516E+03  0.00000E+00  0.00000E+00 -0.23728E+00  0.26261E+00  0.33490E+00
  0.58999E-01  0.13565E+03    0.59000E-01 -0.28124E-01 -0.30876E-01  0.00000E+00  0.00000E+00  0.00000E+00    0.13565E+03  0.00000E+00  0.00000E+00 -0.23576E+00  0.26533E+00  0.33556E+00
  0.59999E-01  0.13611E+03    0.60000E-01 -0.28600E-01 -0.31400E-01  0.00000E+00  0.00000E+00  0.00000E+00    0.13611E+03  0.00000E+00  0.00000E+00 -0.23496E+00  0.26773E+00  0.33619E+00
  0.60999E-01  0.13658E+03    0.61000E-01 -0.29075E-01 -0.31925E-01  0.00000E+00  0.00000E+00  0.00000E+00    0.13657E+03  0.00000E+00  0.00000E+00 -0.23382E+00  0.27030E+00  0.33682E+00
  0.61999E-01  0.13704E+03    0.62000E-01 -0.29551E-01 -0.32449E-01  0.00000E+00  0.00000E+00  0.00000E+00    0.13704E+03  0.00000E+00  0.00000E+00 -0.23260E+00  0.27290E+00  0.33746E+00
  0.62999E-01  0.13751E+03    0.63000E-01 -0.30027E-01 -0.32973E-01  0.00000E+00  0.00000E+00  0.00000E+00    0.13750E+03  0.00000E+00  0.00000E+00 -0.23135E+00  0.27553E+00  0.33810E+00
  0.63999E-01  0.13797E+03    0.64000E-01 -0.30503E-01 -0.33497E-01  0.00000E+00  0.00000E+00  0.00000E+00    0.13797E+03  0.00000E+00  0.00000E+00 -0.23006E+00  0.27817E+00  0.33874E+00
  0.64999E-01  0.13843E+03    0.65000E-01 -0.30978E-01 -0.34022E-01  0.00000E+00  0.00000E+00  0.00000E+00    0.13843E+03  0.00000E+00  0.00000E+00 -0.22875E+00  0.28083E+00  0.33938E+00
  0.65999E-01  0.13889E+03    0.66000E-01 -0.31454E-01 -0.34546E-01  0.00000E+00  0.00000E+00  0.00000E+00    0.13888E+03  0.00000E+00  0.00000E+00 -0.22741E+00  0.28351E+00  0.34002E+00
  0.66999E-01  0.13934E+03    0.67000E-01 -0.31930E-01 -0.35070E-01  0.00000E+00  0.00000E+00  0.00000E+00    0.13934E+03  0.00000E+00  0.00000E+00 -0.22604E+00  0.28620E+00  0.34067E+00
  0.67999E-01  0.13979E+03    0.68000E-01 -0.32405E-01 -0.35595E-01  0.00000E+00  0.00000E+00  0.00000E+00    0.13979E+03  0.00000E+00  0.00000E+00 -0.22465E+00  0.28891E+00  0.34132E+00
  0.68999E-01  0.14024E+03    0.69000E-01 -0.32881E-01 -0.36119E-01  0.00000E+00  0.00000E+00  0.00000E+00    0.14024E+03  0.00000E+00  0.00000E+00 -0.22323E+00  0.29163E+00  0.34196E+00
  0.69999E-01  0.14069E+03    0.70000E-01 -0.33357E-01 -0.36643E-01  0.00000E+00  0.00000E+00  0.00000E+00    0.14069E+03  0.00000E+00  0.00000E+00 -0.22178E+00  0.29437E+00  0.34262E+00
  0.70999E-01  0.14113E+03    0.71000E-01 -0.33832E-01 -0.37168E-01  0.00000E+00  0.00000E+00  0.00000E+00    0.14113E+03  0.00000E+00  0.00000E+00 -0.22032E+00  0.29713E+00  0.34327E+00
  0.71999E-01  0.14158E+03    0.72000E-01 -0.34308E-01 -0.37692E-01  0.00000E+00  0.00000E+00  0.00000E+00    0.14157E+03  0.00000E+00  0.00000E+00 -0.21883E+00  0.29991E+00  0.34393E+00
  0.72998E-01  0.14202E+03    0.73000E-01 -0.34783E-01 -0.38217E-01  0.00000E+00  0.00000E+00  0.00000E+00    0.14201E+03  0.00000E+00  0.00000E+00 -0.21731E+00  0.30270E+00  0.34459E+00
  0.73998E-01  0.14245E+03    0.74000E-01 -0.35259E-01 -0.38741E-01  0.00000E+00  0.00000E+00  0.00000E+00    0.14245E+03  0.00000E+00  0.00000E+00 -0.21577E+00  0.30551E+00  0.34525E+00
  0.74998E-01  0.14289E+03    0.75000E-01 -0.35734E-01 -0.39266E-01  0.00000E+00  0.00000E+00  0.00000E+00    0.14289E+03  0.00000E+00  0.00000E+00 -0.21420E+00  0.30833E+00  0.34593E+00
  0.75998E-01  0.14332E+03    0.76000E-01 -0.36209E-01 -0.39791E-01  0.00000E+00  0.00000E+00  0.00000E+00    0.14332E+03  0.00000E+00  0.00000E+00 -0.21261E+00  0.31118E+00  0.34660E+00
  0.76998E-01  0.14375E+03    0.77000E-01 -0.36685E-01 -0.40315E-01  0.00000E+00  0.00000E+00  0.00000E+00    0.14375E+03  0.00000E+00  0.00000E+00 -0.21100E+00  0.31404E+00  0.34728E+00
  0.77998E-01  0.14419E+03    0.78000E-01 -0.37160E-01 -0.40840E-01  0.00000E+00  0.00000E+00  0.00000E+00    0.14418E+03  0.00000E+00  0.00000E+00 -0.20172E+00  0.32039E+00  0.34801E+00
  0.78998E-01  0.14459E+03    0.79000E-01 -0.37635E-01 -0.41365E-01  0.00000E+00  0.00000E+00  0.00000E+00    0.14458E+03  0.00000E+00  0.00000E+00 -0.20206E+00  0.32288E+00  0.34878E+00
  0.79998E-01  0.14500E+03    0.80000E-01 -0.38111E-01 -0.41889E-01  0.00000E+00  0.00000E+00  0.00000E+00    0.14500E+03  0.00000E+00  0.00000E+00 -0.20006E+00  0.32591E+00  0.34951E+00
  0.80998E-01  0.14542E+03    0.81000E-01 -0.38586E-01 -0.42414E-01  0.00000E+00  0.00000E+00  0.00000E+00    0.14542E+03  0.00000E+00  0.00000E+00 -0.19835E+00  0.32887E+00  0.35023E+00
  0.81998E-01  0.14584E+03    0.82000E-01 -0.39061E-01 -0.42939E-01  0.00000E+00  0.00000E+00  0.00000E+00    0.14584E+03  0.00000E+00  0.00000E+00 -0.19662E+00  0.33184E+00  0.35094E+00
  0.82998E-01  0.14632E+03    0.83000E-01 -0.39536E-01 -0.43464E-01  0.00000E+00  0.00000E+00  0.00000E+00    0.14631E+03  0.00000E+00  0.00000E+00 -0.19315E+00  0.33553E+00  0.35158E+00
  0.83998E-01  0.14674E+03    0.84000E-01 -0.40012E-01 -0.43988E-01  0.00000E+00  0.00000E+00  0.00000E+00    0.14674E+03  0.00000E+00  0.00000E+00 -0.19183E+00  0.33845E+00  0.35229E+00
  0.84998E-01  0.14715E+03    0.85000E-01 -0.40487E-01 -0.44513E-01  0.00000E+00  0.00000E+00  0.00000E+00    0.14715E+03  0.00000E+00  0.00000E+00 -0.19004E+00  0.34148E+00  0.35302E+00
  0.85998E-01  0.14756E+03    0.86000E-01 -0.40962E-01 -0.45038E-01  0.00000E+00  0.00000E+00  0.00000E+00    0.14756E+03  0.00000E+00  0.00000E+00 -0.18822E+00  0.34454E+00  0.35377E+00
  0.86998E-01  0.14797E+03    0.87000E-01 -0.41437E-01 -0.45563E-01  0.00000E+00  0.00000E+00  0.00000E+00    0.14797E+03  0.00000E+00  0.00000E+00 -0.18639E+00  0.34762E+00  0.35453E+00
  0.87998E-01  0.14838E+03    0.88000E-01 -0.41912E-01 -0.46088E-01  0.00000E+00  0.00000E+00  0.00000E+00    0.14838E+03  0.00000E+00  0.00000E+00 -0.18453E+00  0.35071E+00  0.35530E+00
  0.88998E-01  0.14878E+03    0.89000E-01 -0.42387E-01 -0.46613E-01  0.00000E+00  0.00000E+00  0.00000E+00    0.14878E+03  0.00000E+00  0.00000E+00 -0.18266E+00  0.35382E+00  0.35607E+00
  0.89998E-01  0.14919E+03    0.90000E-01 -0.42862E-01 -0.47138E-01  0.00000E+00  0.00000E+00  0.00000E+00    0.14918E+03  0.00000E+00  0.00000E+00 -0.18076E+00  0.35695E+00  0.35686E+00
  0.90998E-01  0.14959E+03    0.91000E-01 -0.43337E-01 -0.47663E-01  0.00000E+00  0.00000E+00  0.00000E+00    0.14958E+03  0.00000E+00  0.00000E+00 -0.17885E+00  0.36010E+00  0.35766E+00
  0.91998E-01  0.14999E+03    0.92000E-01 -0.43812E-01 -0.48188E-01  0.00000E+00  0.00000E+00  0.00000E+00    0.14998E+03  0.00000E+00  0.00000E+00 -0.17692E+00  0.36327E+00  0.35848E+00
  0.92998E-01  0.15038E+03    0.93000E-01 -0.44287E-01 -0.48713E-01  0.00000E+00  0.00000E+00  0.00000E+00    0.15038E+03  0.00000E+00  0.00000E+00 -0.17497E+00  0.36647E+00  0.35930E+00
  0.93998E-01  0.15078E+03    0.94000E-01 -0.44762E-01 -0.49238E-01  0.00000E+00  0.00000E+00  0.00000E+00    0.15077E+03  0.00000E+00  0.00000E+00 -0.17300E+00  0.36968E+00  0.36014E+00
  0.94998E-01  0.15117E+03    0.95000E-01 -0.45237E-01 -0.49763E-01  0.00000E+00  0.00000E+00  0.00000E+00    0.15117E+03  0.00000E+00  0.00000E+00 -0.17101E+00  0.37291E+00  0.36099E+00
  0.95998E-01  0.15156E+03    0.96000E-01 -0.45712E-01 -0.50288E-01  0.00000E+00  0.00000E+00  0.00000E+00    0.15156E+03  0.00000E+00  0.00000E+00 -0.16900E+00  0.37616E+00  0.36185E+00
  0.96998E-01  0.15195E+03    0.97000E-01 -0.46187E-01 -0.50813E-01  0.00000E+00  0.00000E+00  0.00000E+00    0.15195E+03  0.00000E+00  0.00000E+00 -0.16698E+00  0.37943E+00  0.36273E+00
  0.97998E-01  0.15234E+03    0.98000E-01 -0.46661E-01 -0.51339E-01  0.00000E+00  0.00000E+00  0.00000E+00    0.15233E+03  0.00000E+00  0.00000E+00 -0.16494E+00  0.38273E+00  0.36363E+00
  0.98998E-01  0.15272E+03    0.99000E-01 -0.47136E-01 -0.51864E-01  0.00000E+00  0.00000E+00  0.00000E+00    0.15272E+03  0.00000E+00  0.00000E+00 -0.16288E+00  0.38604E+00  0.36454E+00
  0.99998E-01  0.15310E+03    0.10000E+00 -0.47611E-01 -0.52389E-01  0.00000E+00  0.00000E+00  0.00000E+00    0.15310E+03  0.00000E+00  0.00000E+00 -0.16081E+00  0.38938E+00  0.36546E+00
