          Evm          Svm            E11          E22          E33          E23          E13          E12         SCAU11       SCAU22       SCAU33       SCAU23       SCAU13       SCAU12      TEMP
  0.00000E+00  0.10725E+03    0.00000E+00  0.00000E+00  0.00000E+00  0.00000E+00  0.00000E+00  0.00000E+00    0.10725E+03  0.00000E+00  0.00000E+00 -0.24875E+00  0.15422E+00  0.29635E+00
  0.99998E-03  0.10788E+03    0.10000E-02 -0.47967E-03 -0.52033E-03  0.00000E+00  0.00000E+00  0.00000E+00    0.10788E+03  0.00000E+00  0.00000E+00 -0.25379E+00  0.15785E+00  0.30012E+00
  0.20000E-02  0.10848E+03    0.20000E-02 -0.95784E-03 -0.10422E-02  0.00000E+00  0.00000E+00  0.00000E+00    0.10848E+03  0.00000E+00  0.00000E+00 -0.25407E+00  0.15901E+00  0.30256E+00
  0.29999E-02  0.10913E+03    0.30000E-02 -0.14356E-02 -0.15644E-02  0.00000E+00  0.00000E+00  0.00000E+00    0.10912E+03  0.00000E+00  0.00000E+00 -0.25305E+00  0.16132E+00  0.30407E+00
  0.39999E-02  0.10979E+03    0.40000E-02 -0.19132E-02 -0.20868E-02  0.00000E+00  0.00000E+00  0.00000E+00    0.10979E+03  0.00000E+00  0.00000E+00 -0.25405E+00  0.16282E+00  0.30550E+00
  0.49999E-02  0.11044E+03    0.50000E-02 -0.23906E-02 -0.26094E-02  0.00000E+00  0.00000E+00  0.00000E+00    0.11044E+03  0.00000E+00  0.00000E+00 -0.25497E+00  0.16424E+00  0.30669E+00
  0.59999E-02  0.11109E+03    0.60000E-02 -0.28679E-02 -0.31321E-02  0.00000E+00  0.00000E+00  0.00000E+00    0.11109E+03  0.00000E+00  0.00000E+00 -0.25583E+00  0.16568E+00  0.30781E+00
  0.69998E-02  0.11174E+03    0.70000E-02 -0.33452E-02 -0.36548E-02  0.00000E+00  0.00000E+00  0.00000E+00    0.11173E+03  0.00000E+00  0.00000E+00 -0.25665E+00  0.16715E+00  0.30888E+00
  0.79998E-02  0.11238E+03    0.80000E-02 -0.38224E-02 -0.41776E-02  0.00000E+00  0.00000E+00  0.00000E+00    0.11237E+03  0.00000E+00  0.00000E+00 -0.25741E+00  0.16865E+00  0.30992E+00
  0.89998E-02  0.11301E+03    0.90000E-02 -0.42995E-02 -0.47005E-02  0.00000E+00  0.00000E+00  0.00000E+00    0.11301E+03  0.00000E+00  0.00000E+00 -0.25812E+00  0.17018E+00  0.31092E+00
  0.99998E-02  0.11364E+03    0.10000E-01 -0.47766E-02 -0.52234E-02  0.00000E+00  0.00000E+00  0.00000E+00    0.11364E+03  0.00000E+00  0.00000E+00 -0.25879E+00  0.17173E+00  0.31190E+00
  0.11000E-01  0.11427E+03    0.11000E-01 -0.52537E-02 -0.57463E-02  0.00000E+00  0.00000E+00  0.00000E+00    0.11427E+03  0.00000E+00  0.00000E+00 -0.25940E+00  0.17332E+00  0.31285E+00
  0.12000E-01  0.11490E+03    0.12000E-01 -0.57307E-02 -0.62693E-02  0.00000E+00  0.00000E+00  0.00000E+00    0.11489E+03  0.00000E+00  0.00000E+00 -0.25997E+00  0.17493E+00  0.31379E+00
  0.13000E-01  0.11552E+03    0.13000E-01 -0.62077E-02 -0.67923E-02  0.00000E+00  0.00000E+00  0.00000E+00    0.11552E+03  0.00000E+00  0.00000E+00 -0.26049E+00  0.17657E+00  0.31471E+00
  0.14000E-01  0.11614E+03    0.14000E-01 -0.66847E-02 -0.73153E-02  0.00000E+00  0.00000E+00  0.00000E+00    0.11613E+03  0.00000E+00  0.00000E+00 -0.26096E+00  0.17823E+00  0.31561E+00
  0.15000E-01  0.11675E+03    0.15000E-01 -0.71617E-02 -0.78383E-02  0.00000E+00  0.00000E+00  0.00000E+00    0.11675E+03  0.00000E+00  0.00000E+00 -0.26139E+00  0.17992E+00  0.31650E+00
  0.16000E-01  0.11736E+03    0.16000E-01 -0.76386E-02 -0.83614E-02  0.00000E+00  0.00000E+00  0.00000E+00    0.11736E+03  0.00000E+00  0.00000E+00 -0.26177E+00  0.18164E+00  0.31737E+00
  0.17000E-01  0.11796E+03    0.17000E-01 -0.81155E-02 -0.88845E-02  0.00000E+00  0.00000E+00  0.00000E+00    0.11796E+03  0.00000E+00  0.00000E+00 -0.26210E+00  0.18338E+00  0.31823E+00
  0.18000E-01  0.11857E+03    0.18000E-01 -0.85924E-02 -0.94076E-02  0.00000E+00  0.00000E+00  0.00000E+00    0.11856E+03  0.00000E+00  0.00000E+00 -0.26238E+00  0.18514E+00  0.31908E+00
  0.19000E-01  0.11916E+03    0.19000E-01 -0.90693E-02 -0.99307E-02  0.00000E+00  0.00000E+00  0.00000E+00    0.11916E+03  0.00000E+00  0.00000E+00 -0.26262E+00  0.18693E+00  0.31992E+00
  0.20000E-01  0.11976E+03    0.20000E-01 -0.95461E-02 -0.10454E-01  0.00000E+00  0.00000E+00  0.00000E+00    0.11976E+03  0.00000E+00  0.00000E+00 -0.26282E+00  0.18875E+00  0.32074E+00
  0.21000E-01  0.12035E+03    0.21000E-01 -0.10023E-01 -0.10977E-01  0.00000E+00  0.00000E+00  0.00000E+00    0.12035E+03  0.00000E+00  0.00000E+00 -0.26297E+00  0.19059E+00  0.32155E+00
  0.22000E-01  0.12094E+03    0.22000E-01 -0.10500E-01 -0.11500E-01  0.00000E+00  0.00000E+00  0.00000E+00    0.12094E+03  0.00000E+00  0.00000E+00 -0.26307E+00  0.19245E+00  0.32236E+00
  0.22999E-01  0.12152E+03    0.23000E-01 -0.10976E-01 -0.12024E-01  0.00000E+00  0.00000E+00  0.00000E+00    0.12152E+03  0.00000E+00  0.00000E+00 -0.26314E+00  0.19434E+00  0.32315E+00
  0.23999E-01  0.12210E+03    0.24000E-01 -0.11453E-01 -0.12547E-01  0.00000E+00  0.00000E+00  0.00000E+00    0.12210E+03  0.00000E+00  0.00000E+00 -0.26315E+00  0.19626E+00  0.32394E+00
  0.24999E-01  0.12268E+03    0.25000E-01 -0.11930E-01 -0.13070E-01  0.00000E+00  0.00000E+00  0.00000E+00    0.12268E+03  0.00000E+00  0.00000E+00 -0.26313E+00  0.19820E+00  0.32471E+00
  0.25999E-01  0.12326E+03    0.26000E-01 -0.12407E-01 -0.13593E-01  0.00000E+00  0.00000E+00  0.00000E+00    0.12325E+03  0.00000E+00  0.00000E+00 -0.26306E+00  0.20017E+00  0.32547E+00
  0.26999E-01  0.12383E+03    0.27000E-01 -0.12883E-01 -0.14117E-01  0.00000E+00  0.00000E+00  0.00000E+00    0.12382E+03  0.00000E+00  0.00000E+00 -0.26296E+00  0.20215E+00  0.32623E+00
  0.27999E-01  0.12439E+03    0.28000E-01 -0.13360E-01 -0.14640E-01  0.00000E+00  0.00000E+00  0.00000E+00    0.12439E+03  0.00000E+00  0.00000E+00 -0.26281E+00  0.20416E+00  0.32698E+00
  0.28999E-01  0.12496E+03    0.29000E-01 -0.13837E-01 -0.15163E-01  0.00000E+00  0.00000E+00  0.00000E+00    0.12495E+03  0.00000E+00  0.00000E+00 -0.26262E+00  0.20620E+00  0.32771E+00
  0.29999E-01  0.12552E+03    0.30000E-01 -0.14313E-01 -0.15687E-01  0.00000E+00  0.00000E+00  0.00000E+00    0.12551E+03  0.00000E+00  0.00000E+00 -0.26239E+00  0.20826E+00  0.32845E+00
  0.30999E-01  0.12607E+03    0.31000E-01 -0.14790E-01 -0.16210E-01  0.00000E+00  0.00000E+00  0.00000E+00    0.12607E+03  0.00000E+00  0.00000E+00 -0.26212E+00  0.21034E+00  0.32917E+00
  0.31999E-01  0.12658E+03    0.32000E-01 -0.15266E-01 -0.16734E-01  0.00000E+00  0.00000E+00  0.00000E+00    0.12658E+03  0.00000E+00  0.00000E+00 -0.26518E+00  0.21086E+00  0.32985E+00
  0.32999E-01  0.12717E+03    0.33000E-01 -0.15743E-01 -0.17257E-01  0.00000E+00  0.00000E+00  0.00000E+00    0.12717E+03  0.00000E+00  0.00000E+00 -0.26167E+00  0.21442E+00  0.33055E+00
  0.33999E-01  0.12768E+03    0.34000E-01 -0.16219E-01 -0.17781E-01  0.00000E+00  0.00000E+00  0.00000E+00    0.12768E+03  0.00000E+00  0.00000E+00 -0.26447E+00  0.21508E+00  0.33127E+00
  0.34999E-01  0.12823E+03    0.35000E-01 -0.16696E-01 -0.18304E-01  0.00000E+00  0.00000E+00  0.00000E+00    0.12822E+03  0.00000E+00  0.00000E+00 -0.26414E+00  0.21715E+00  0.33196E+00
  0.35999E-01  0.12877E+03    0.36000E-01 -0.17172E-01 -0.18828E-01  0.00000E+00  0.00000E+00  0.00000E+00    0.12877E+03  0.00000E+00  0.00000E+00 -0.26370E+00  0.21931E+00  0.33265E+00
  0.36999E-01  0.12931E+03    0.37000E-01 -0.17649E-01 -0.19351E-01  0.00000E+00  0.00000E+00  0.00000E+00    0.12930E+03  0.00000E+00  0.00000E+00 -0.26320E+00  0.22150E+00  0.33334E+00
  0.37999E-01  0.12984E+03    0.38000E-01 -0.18125E-01 -0.19875E-01  0.00000E+00  0.00000E+00  0.00000E+00    0.12984E+03  0.00000E+00  0.00000E+00 -0.26267E+00  0.22372E+00  0.33402E+00
  0.38999E-01  0.13037E+03    0.39000E-01 -0.18602E-01 -0.20398E-01  0.00000E+00  0.00000E+00  0.00000E+00    0.13037E+03  0.00000E+00  0.00000E+00 -0.26210E+00  0.22595E+00  0.33470E+00
  0.39999E-01  0.13090E+03    0.40000E-01 -0.19078E-01 -0.20922E-01  0.00000E+00  0.00000E+00  0.00000E+00    0.13090E+03  0.00000E+00  0.00000E+00 -0.26150E+00  0.22820E+00  0.33538E+00
  0.40999E-01  0.13143E+03    0.41000E-01 -0.19554E-01 -0.21446E-01  0.00000E+00  0.00000E+00  0.00000E+00    0.13143E+03  0.00000E+00  0.00000E+00 -0.26087E+00  0.23048E+00  0.33604E+00
  0.41999E-01  0.13198E+03    0.42000E-01 -0.20031E-01 -0.21969E-01  0.00000E+00  0.00000E+00  0.00000E+00    0.13198E+03  0.00000E+00  0.00000E+00 -0.25692E+00  0.23440E+00  0.33662E+00
  0.42999E-01  0.13247E+03    0.43000E-01 -0.20507E-01 -0.22493E-01  0.00000E+00  0.00000E+00  0.00000E+00    0.13247E+03  0.00000E+00  0.00000E+00 -0.25941E+00  0.23518E+00  0.33737E+00
  0.43999E-01  0.13301E+03    0.44000E-01 -0.20983E-01 -0.23017E-01  0.00000E+00  0.00000E+00  0.00000E+00    0.13301E+03  0.00000E+00  0.00000E+00 -0.25548E+00  0.23909E+00  0.33793E+00
  0.44999E-01  0.13350E+03    0.45000E-01 -0.21459E-01 -0.23541E-01  0.00000E+00  0.00000E+00  0.00000E+00    0.13350E+03  0.00000E+00  0.00000E+00 -0.25789E+00  0.23987E+00  0.33868E+00
  0.45999E-01  0.13404E+03    0.46000E-01 -0.21936E-01 -0.24064E-01  0.00000E+00  0.00000E+00  0.00000E+00    0.13404E+03  0.00000E+00  0.00000E+00 -0.25389E+00  0.24387E+00  0.33921E+00
  0.46999E-01  0.13452E+03    0.47000E-01 -0.22412E-01 -0.24588E-01  0.00000E+00  0.00000E+00  0.00000E+00    0.13452E+03  0.00000E+00  0.00000E+00 -0.25623E+00  0.24464E+00  0.33997E+00
  0.47999E-01  0.13501E+03    0.48000E-01 -0.22888E-01 -0.25112E-01  0.00000E+00  0.00000E+00  0.00000E+00    0.13501E+03  0.00000E+00  0.00000E+00 -0.25580E+00  0.24682E+00  0.34058E+00
  0.48999E-01  0.13553E+03    0.49000E-01 -0.23364E-01 -0.25636E-01  0.00000E+00  0.00000E+00  0.00000E+00    0.13553E+03  0.00000E+00  0.00000E+00 -0.25453E+00  0.24940E+00  0.34125E+00
  0.49999E-01  0.13602E+03    0.50000E-01 -0.23840E-01 -0.26160E-01  0.00000E+00  0.00000E+00  0.00000E+00    0.13601E+03  0.00000E+00  0.00000E+00 -0.25396E+00  0.25170E+00  0.34186E+00
  0.50999E-01  0.13653E+03    0.51000E-01 -0.24316E-01 -0.26684E-01  0.00000E+00  0.00000E+00  0.00000E+00    0.13652E+03  0.00000E+00  0.00000E+00 -0.25263E+00  0.25432E+00  0.34251E+00
  0.51999E-01  0.13701E+03    0.52000E-01 -0.24792E-01 -0.27208E-01  0.00000E+00  0.00000E+00  0.00000E+00    0.13700E+03  0.00000E+00  0.00000E+00 -0.25199E+00  0.25665E+00  0.34312E+00
  0.52999E-01  0.13751E+03    0.53000E-01 -0.25268E-01 -0.27732E-01  0.00000E+00  0.00000E+00  0.00000E+00    0.13751E+03  0.00000E+00  0.00000E+00 -0.25059E+00  0.25932E+00  0.34377E+00
  0.53999E-01  0.13799E+03    0.54000E-01 -0.25744E-01 -0.28256E-01  0.00000E+00  0.00000E+00  0.00000E+00    0.13798E+03  0.00000E+00  0.00000E+00 -0.24988E+00  0.26168E+00  0.34438E+00
  0.54999E-01  0.13847E+03    0.55000E-01 -0.26220E-01 -0.28780E-01  0.00000E+00  0.00000E+00  0.00000E+00    0.13847E+03  0.00000E+00  0.00000E+00 -0.24886E+00  0.26420E+00  0.34500E+00
  0.55999E-01  0.13897E+03    0.56000E-01 -0.26696E-01 -0.29304E-01  0.00000E+00  0.00000E+00  0.00000E+00    0.13897E+03  0.00000E+00  0.00000E+00 -0.24730E+00  0.26695E+00  0.34565E+00
  0.56999E-01  0.13944E+03    0.57000E-01 -0.27172E-01 -0.29828E-01  0.00000E+00  0.00000E+00  0.00000E+00    0.13943E+03  0.00000E+00  0.00000E+00 -0.24651E+00  0.26936E+00  0.34626E+00
  0.57999E-01  0.13991E+03    0.58000E-01 -0.27648E-01 -0.30352E-01  0.00000E+00  0.00000E+00  0.00000E+00    0.13991E+03  0.00000E+00  0.00000E+00 -0.24539E+00  0.27193E+00  0.34688E+00
  0.58999E-01  0.14039E+03    0.59000E-01 -0.28124E-01 -0.30876E-01  0.00000E+00  0.00000E+00  0.00000E+00    0.14039E+03  0.00000E+00  0.00000E+00 -0.24419E+00  0.27454E+00  0.34750E+00
  0.59999E-01  0.14086E+03    0.60000E-01 -0.28600E-01 -0.31400E-01  0.00000E+00  0.00000E+00  0.00000E+00    0.14086E+03  0.00000E+00  0.00000E+00 -0.24296E+00  0.27717E+00  0.34812E+00
  0.60999E-01  0.14133E+03    0.61000E-01 -0.29075E-01 -0.31925E-01  0.00000E+00  0.00000E+00  0.00000E+00    0.14133E+03  0.00000E+00  0.00000E+00 -0.24168E+00  0.27982E+00  0.34874E+00
  0.61999E-01  0.14180E+03    0.62000E-01 -0.29551E-01 -0.32449E-01  0.00000E+00  0.00000E+00  0.00000E+00    0.14180E+03  0.00000E+00  0.00000E+00 -0.24039E+00  0.28249E+00  0.34936E+00
  0.62999E-01  0.14226E+03    0.63000E-01 -0.30027E-01 -0.32973E-01  0.00000E+00  0.00000E+00  0.00000E+00    0.14226E+03  0.00000E+00  0.00000E+00 -0.23906E+00  0.28517E+00  0.34999E+00
  0.63999E-01  0.14273E+03    0.64000E-01 -0.30503E-01 -0.33497E-01  0.00000E+00  0.00000E+00  0.00000E+00    0.14272E+03  0.00000E+00  0.00000E+00 -0.23771E+00  0.28787E+00  0.35061E+00
  0.64999E-01  0.14319E+03    0.65000E-01 -0.30978E-01 -0.34022E-01  0.00000E+00  0.00000E+00  0.00000E+00    0.14318E+03  0.00000E+00  0.00000E+00 -0.23633E+00  0.29059E+00  0.35124E+00
  0.65999E-01  0.14364E+03    0.66000E-01 -0.31454E-01 -0.34546E-01  0.00000E+00  0.00000E+00  0.00000E+00    0.14364E+03  0.00000E+00  0.00000E+00 -0.23492E+00  0.29332E+00  0.35187E+00
  0.66999E-01  0.14410E+03    0.67000E-01 -0.31930E-01 -0.35070E-01  0.00000E+00  0.00000E+00  0.00000E+00    0.14409E+03  0.00000E+00  0.00000E+00 -0.23349E+00  0.29607E+00  0.35250E+00
  0.67999E-01  0.14455E+03    0.68000E-01 -0.32405E-01 -0.35595E-01  0.00000E+00  0.00000E+00  0.00000E+00    0.14455E+03  0.00000E+00  0.00000E+00 -0.23203E+00  0.29884E+00  0.35313E+00
  0.68999E-01  0.14500E+03    0.69000E-01 -0.32881E-01 -0.36119E-01  0.00000E+00  0.00000E+00  0.00000E+00    0.14500E+03  0.00000E+00  0.00000E+00 -0.23054E+00  0.30162E+00  0.35377E+00
  0.69999E-01  0.14545E+03    0.70000E-01 -0.33356E-01 -0.36644E-01  0.00000E+00  0.00000E+00  0.00000E+00    0.14544E+03  0.00000E+00  0.00000E+00 -0.22903E+00  0.30442E+00  0.35440E+00
  0.70999E-01  0.14589E+03    0.71000E-01 -0.33832E-01 -0.37168E-01  0.00000E+00  0.00000E+00  0.00000E+00    0.14589E+03  0.00000E+00  0.00000E+00 -0.22750E+00  0.30724E+00  0.35504E+00
  0.71999E-01  0.14634E+03    0.72000E-01 -0.34307E-01 -0.37693E-01  0.00000E+00  0.00000E+00  0.00000E+00    0.14633E+03  0.00000E+00  0.00000E+00 -0.22594E+00  0.31008E+00  0.35569E+00
  0.72998E-01  0.14678E+03    0.73000E-01 -0.34783E-01 -0.38217E-01  0.00000E+00  0.00000E+00  0.00000E+00    0.14677E+03  0.00000E+00  0.00000E+00 -0.22435E+00  0.31293E+00  0.35634E+00
  0.73998E-01  0.14722E+03    0.74000E-01 -0.35258E-01 -0.38742E-01  0.00000E+00  0.00000E+00  0.00000E+00    0.14722E+03  0.00000E+00  0.00000E+00 -0.21507E+00  0.31918E+00  0.35705E+00
  0.74998E-01  0.14763E+03    0.75000E-01 -0.35734E-01 -0.39266E-01  0.00000E+00  0.00000E+00  0.00000E+00    0.14762E+03  0.00000E+00  0.00000E+00 -0.21544E+00  0.32170E+00  0.35777E+00
  0.75998E-01  0.14805E+03    0.76000E-01 -0.36209E-01 -0.39791E-01  0.00000E+00  0.00000E+00  0.00000E+00    0.14805E+03  0.00000E+00  0.00000E+00 -0.21347E+00  0.32471E+00  0.35846E+00
  0.76998E-01  0.14848E+03    0.77000E-01 -0.36685E-01 -0.40315E-01  0.00000E+00  0.00000E+00  0.00000E+00    0.14848E+03  0.00000E+00  0.00000E+00 -0.21178E+00  0.32766E+00  0.35914E+00
  0.77998E-01  0.14891E+03    0.78000E-01 -0.37160E-01 -0.40840E-01  0.00000E+00  0.00000E+00  0.00000E+00    0.14891E+03  0.00000E+00  0.00000E+00 -0.21007E+00  0.33063E+00  0.35982E+00
  0.78998E-01  0.14940E+03    0.79000E-01 -0.37635E-01 -0.41365E-01  0.00000E+00  0.00000E+00  0.00000E+00    0.14939E+03  0.00000E+00  0.00000E+00 -0.20662E+00  0.33429E+00  0.36043E+00
  0.79998E-01  0.14983E+03    0.80000E-01 -0.38111E-01 -0.41889E-01  0.00000E+00  0.00000E+00  0.00000E+00    0.14983E+03  0.00000E+00  0.00000E+00 -0.20533E+00  0.33720E+00  0.36109E+00
  0.80998E-01  0.15025E+03    0.81000E-01 -0.38586E-01 -0.42414E-01  0.00000E+00  0.00000E+00  0.00000E+00    0.15025E+03  0.00000E+00  0.00000E+00 -0.20355E+00  0.34023E+00  0.36178E+00
  0.81998E-01  0.15067E+03    0.82000E-01 -0.39061E-01 -0.42939E-01  0.00000E+00  0.00000E+00  0.00000E+00    0.15067E+03  0.00000E+00  0.00000E+00 -0.20175E+00  0.34328E+00  0.36249E+00
  0.82998E-01  0.15109E+03    0.83000E-01 -0.39536E-01 -0.43464E-01  0.00000E+00  0.00000E+00  0.00000E+00    0.15109E+03  0.00000E+00  0.00000E+00 -0.19993E+00  0.34634E+00  0.36320E+00
  0.83998E-01  0.15150E+03    0.84000E-01 -0.40011E-01 -0.43989E-01  0.00000E+00  0.00000E+00  0.00000E+00    0.15150E+03  0.00000E+00  0.00000E+00 -0.19808E+00  0.34943E+00  0.36392E+00
  0.84998E-01  0.15192E+03    0.85000E-01 -0.40486E-01 -0.44514E-01  0.00000E+00  0.00000E+00  0.00000E+00    0.15192E+03  0.00000E+00  0.00000E+00 -0.19622E+00  0.35253E+00  0.36465E+00
  0.85998E-01  0.15233E+03    0.86000E-01 -0.40962E-01 -0.45038E-01  0.00000E+00  0.00000E+00  0.00000E+00    0.15233E+03  0.00000E+00  0.00000E+00 -0.19434E+00  0.35565E+00  0.36539E+00
  0.86998E-01  0.15274E+03    0.87000E-01 -0.41437E-01 -0.45563E-01  0.00000E+00  0.00000E+00  0.00000E+00    0.15274E+03  0.00000E+00  0.00000E+00 -0.19243E+00  0.35879E+00  0.36614E+00
  0.87998E-01  0.15315E+03    0.88000E-01 -0.41912E-01 -0.46088E-01  0.00000E+00  0.00000E+00  0.00000E+00    0.15314E+03  0.00000E+00  0.00000E+00 -0.19051E+00  0.36195E+00  0.36691E+00
  0.88998E-01  0.15355E+03    0.89000E-01 -0.42387E-01 -0.46613E-01  0.00000E+00  0.00000E+00  0.00000E+00    0.15355E+03  0.00000E+00  0.00000E+00 -0.18856E+00  0.36513E+00  0.36768E+00
  0.89998E-01  0.15395E+03    0.90000E-01 -0.42862E-01 -0.47138E-01  0.00000E+00  0.00000E+00  0.00000E+00    0.15395E+03  0.00000E+00  0.00000E+00 -0.18660E+00  0.36833E+00  0.36846E+00
  0.90998E-01  0.15435E+03    0.91000E-01 -0.43337E-01 -0.47663E-01  0.00000E+00  0.00000E+00  0.00000E+00    0.15435E+03  0.00000E+00  0.00000E+00 -0.18461E+00  0.37155E+00  0.36926E+00
  0.91998E-01  0.15475E+03    0.92000E-01 -0.43812E-01 -0.48188E-01  0.00000E+00  0.00000E+00  0.00000E+00    0.15475E+03  0.00000E+00  0.00000E+00 -0.18261E+00  0.37479E+00  0.37007E+00
  0.92998E-01  0.15515E+03    0.93000E-01 -0.44287E-01 -0.48713E-01  0.00000E+00  0.00000E+00  0.00000E+00    0.15515E+03  0.00000E+00  0.00000E+00 -0.18059E+00  0.37805E+00  0.37089E+00
  0.93998E-01  0.15555E+03    0.94000E-01 -0.44762E-01 -0.49238E-01  0.00000E+00  0.00000E+00  0.00000E+00    0.15554E+03  0.00000E+00  0.00000E+00 -0.17855E+00  0.38133E+00  0.37172E+00
  0.94998E-01  0.15594E+03    0.95000E-01 -0.45236E-01 -0.49764E-01  0.00000E+00  0.00000E+00  0.00000E+00    0.15594E+03  0.00000E+00  0.00000E+00 -0.17649E+00  0.38464E+00  0.37257E+00
  0.95998E-01  0.15633E+03    0.96000E-01 -0.45711E-01 -0.50289E-01  0.00000E+00  0.00000E+00  0.00000E+00    0.15633E+03  0.00000E+00  0.00000E+00 -0.17441E+00  0.38796E+00  0.37343E+00
  0.96998E-01  0.15672E+03    0.97000E-01 -0.46186E-01 -0.50814E-01  0.00000E+00  0.00000E+00  0.00000E+00    0.15672E+03  0.00000E+00  0.00000E+00 -0.17231E+00  0.39130E+00  0.37431E+00
  0.97998E-01  0.15711E+03    0.98000E-01 -0.46661E-01 -0.51339E-01  0.00000E+00  0.00000E+00  0.00000E+00    0.15710E+03  0.00000E+00  0.00000E+00 -0.17020E+00  0.39467E+00  0.37520E+00
  0.98998E-01  0.15749E+03    0.99000E-01 -0.47136E-01 -0.51864E-01  0.00000E+00  0.00000E+00  0.00000E+00    0.15749E+03  0.00000E+00  0.00000E+00 -0.16807E+00  0.39806E+00  0.37611E+00
  0.99998E-01  0.15787E+03    0.10000E+00 -0.47611E-01 -0.52389E-01  0.00000E+00  0.00000E+00  0.00000E+00    0.15787E+03  0.00000E+00  0.00000E+00 -0.16593E+00  0.40147E+00  0.37704E+00
