          Evm          Svm            E11          E22          E33          E23          E13          E12         SCAU11       SCAU22       SCAU33       SCAU23       SCAU13       SCAU12      TEMP
  0.00000E+00  0.87589E+02    0.00000E+00  0.00000E+00  0.00000E+00  0.00000E+00  0.00000E+00  0.00000E+00    0.87587E+02  0.00000E+00  0.00000E+00 -0.20315E+00  0.12595E+00  0.24202E+00
  0.99998E-03  0.88152E+02    0.10000E-02 -0.47967E-03 -0.52033E-03  0.00000E+00  0.00000E+00  0.00000E+00    0.88150E+02  0.00000E+00  0.00000E+00 -0.20760E+00  0.12897E+00  0.24522E+00
  0.20000E-02  0.88683E+02    0.20000E-02 -0.95784E-03 -0.10422E-02  0.00000E+00  0.00000E+00  0.00000E+00    0.88680E+02  0.00000E+00  0.00000E+00 -0.20792E+00  0.13000E+00  0.24733E+00
  0.29999E-02  0.89269E+02    0.30000E-02 -0.14356E-02 -0.15644E-02  0.00000E+00  0.00000E+00  0.00000E+00    0.89267E+02  0.00000E+00  0.00000E+00 -0.20900E+00  0.13115E+00  0.24879E+00
  0.39999E-02  0.89844E+02    0.40000E-02 -0.19132E-02 -0.20868E-02  0.00000E+00  0.00000E+00  0.00000E+00    0.89842E+02  0.00000E+00  0.00000E+00 -0.20801E+00  0.13316E+00  0.24996E+00
  0.49999E-02  0.90433E+02    0.50000E-02 -0.23906E-02 -0.26094E-02  0.00000E+00  0.00000E+00  0.00000E+00    0.90431E+02  0.00000E+00  0.00000E+00 -0.20891E+00  0.13449E+00  0.25111E+00
  0.59999E-02  0.91011E+02    0.60000E-02 -0.28679E-02 -0.31321E-02  0.00000E+00  0.00000E+00  0.00000E+00    0.91009E+02  0.00000E+00  0.00000E+00 -0.20976E+00  0.13573E+00  0.25214E+00
  0.69998E-02  0.91584E+02    0.70000E-02 -0.33451E-02 -0.36549E-02  0.00000E+00  0.00000E+00  0.00000E+00    0.91582E+02  0.00000E+00  0.00000E+00 -0.21055E+00  0.13700E+00  0.25313E+00
  0.79998E-02  0.92155E+02    0.80000E-02 -0.38223E-02 -0.41777E-02  0.00000E+00  0.00000E+00  0.00000E+00    0.92153E+02  0.00000E+00  0.00000E+00 -0.21130E+00  0.13828E+00  0.25409E+00
  0.89998E-02  0.92721E+02    0.90000E-02 -0.42994E-02 -0.47006E-02  0.00000E+00  0.00000E+00  0.00000E+00    0.92719E+02  0.00000E+00  0.00000E+00 -0.21200E+00  0.13959E+00  0.25502E+00
  0.99998E-02  0.93285E+02    0.10000E-01 -0.47765E-02 -0.52235E-02  0.00000E+00  0.00000E+00  0.00000E+00    0.93283E+02  0.00000E+00  0.00000E+00 -0.21266E+00  0.14093E+00  0.25593E+00
  0.11000E-01  0.93844E+02    0.11000E-01 -0.52536E-02 -0.57464E-02  0.00000E+00  0.00000E+00  0.00000E+00    0.93842E+02  0.00000E+00  0.00000E+00 -0.21328E+00  0.14228E+00  0.25682E+00
  0.12000E-01  0.94401E+02    0.12000E-01 -0.57306E-02 -0.62694E-02  0.00000E+00  0.00000E+00  0.00000E+00    0.94399E+02  0.00000E+00  0.00000E+00 -0.21386E+00  0.14366E+00  0.25770E+00
  0.13000E-01  0.94954E+02    0.13000E-01 -0.62076E-02 -0.67924E-02  0.00000E+00  0.00000E+00  0.00000E+00    0.94952E+02  0.00000E+00  0.00000E+00 -0.21439E+00  0.14507E+00  0.25856E+00
  0.14000E-01  0.95503E+02    0.14000E-01 -0.66846E-02 -0.73154E-02  0.00000E+00  0.00000E+00  0.00000E+00    0.95501E+02  0.00000E+00  0.00000E+00 -0.21489E+00  0.14649E+00  0.25941E+00
  0.15000E-01  0.96050E+02    0.15000E-01 -0.71615E-02 -0.78385E-02  0.00000E+00  0.00000E+00  0.00000E+00    0.96048E+02  0.00000E+00  0.00000E+00 -0.21534E+00  0.14794E+00  0.26025E+00
  0.16000E-01  0.96593E+02    0.16000E-01 -0.76385E-02 -0.83615E-02  0.00000E+00  0.00000E+00  0.00000E+00    0.96590E+02  0.00000E+00  0.00000E+00 -0.21575E+00  0.14940E+00  0.26107E+00
  0.17000E-01  0.97132E+02    0.17000E-01 -0.81154E-02 -0.88846E-02  0.00000E+00  0.00000E+00  0.00000E+00    0.97130E+02  0.00000E+00  0.00000E+00 -0.21613E+00  0.15089E+00  0.26188E+00
  0.18000E-01  0.97669E+02    0.18000E-01 -0.85922E-02 -0.94078E-02  0.00000E+00  0.00000E+00  0.00000E+00    0.97667E+02  0.00000E+00  0.00000E+00 -0.21646E+00  0.15241E+00  0.26268E+00
  0.19000E-01  0.98202E+02    0.19000E-01 -0.90691E-02 -0.99309E-02  0.00000E+00  0.00000E+00  0.00000E+00    0.98200E+02  0.00000E+00  0.00000E+00 -0.21675E+00  0.15394E+00  0.26347E+00
  0.20000E-01  0.98732E+02    0.20000E-01 -0.95460E-02 -0.10454E-01  0.00000E+00  0.00000E+00  0.00000E+00    0.98730E+02  0.00000E+00  0.00000E+00 -0.21701E+00  0.15549E+00  0.26425E+00
  0.21000E-01  0.99259E+02    0.21000E-01 -0.10023E-01 -0.10977E-01  0.00000E+00  0.00000E+00  0.00000E+00    0.99256E+02  0.00000E+00  0.00000E+00 -0.21723E+00  0.15707E+00  0.26502E+00
  0.22000E-01  0.99782E+02    0.22000E-01 -0.10500E-01 -0.11500E-01  0.00000E+00  0.00000E+00  0.00000E+00    0.99780E+02  0.00000E+00  0.00000E+00 -0.21740E+00  0.15867E+00  0.26578E+00
  0.22999E-01  0.10030E+03    0.23000E-01 -0.10976E-01 -0.12024E-01  0.00000E+00  0.00000E+00  0.00000E+00    0.10030E+03  0.00000E+00  0.00000E+00 -0.21754E+00  0.16029E+00  0.26653E+00
  0.23999E-01  0.10082E+03    0.24000E-01 -0.11453E-01 -0.12547E-01  0.00000E+00  0.00000E+00  0.00000E+00    0.10082E+03  0.00000E+00  0.00000E+00 -0.21765E+00  0.16192E+00  0.26727E+00
  0.24999E-01  0.10133E+03    0.25000E-01 -0.11930E-01 -0.13070E-01  0.00000E+00  0.00000E+00  0.00000E+00    0.10133E+03  0.00000E+00  0.00000E+00 -0.21771E+00  0.16358E+00  0.26800E+00
  0.25999E-01  0.10185E+03    0.26000E-01 -0.12407E-01 -0.13593E-01  0.00000E+00  0.00000E+00  0.00000E+00    0.10184E+03  0.00000E+00  0.00000E+00 -0.21774E+00  0.16526E+00  0.26872E+00
  0.26999E-01  0.10235E+03    0.27000E-01 -0.12883E-01 -0.14117E-01  0.00000E+00  0.00000E+00  0.00000E+00    0.10235E+03  0.00000E+00  0.00000E+00 -0.21773E+00  0.16696E+00  0.26944E+00
  0.27999E-01  0.10286E+03    0.28000E-01 -0.13360E-01 -0.14640E-01  0.00000E+00  0.00000E+00  0.00000E+00    0.10286E+03  0.00000E+00  0.00000E+00 -0.21769E+00  0.16868E+00  0.27015E+00
  0.28999E-01  0.10336E+03    0.29000E-01 -0.13837E-01 -0.15163E-01  0.00000E+00  0.00000E+00  0.00000E+00    0.10336E+03  0.00000E+00  0.00000E+00 -0.21761E+00  0.17042E+00  0.27085E+00
  0.29999E-01  0.10386E+03    0.30000E-01 -0.14313E-01 -0.15687E-01  0.00000E+00  0.00000E+00  0.00000E+00    0.10386E+03  0.00000E+00  0.00000E+00 -0.21749E+00  0.17219E+00  0.27154E+00
  0.30999E-01  0.10436E+03    0.31000E-01 -0.14790E-01 -0.16210E-01  0.00000E+00  0.00000E+00  0.00000E+00    0.10435E+03  0.00000E+00  0.00000E+00 -0.21734E+00  0.17397E+00  0.27223E+00
  0.31999E-01  0.10485E+03    0.32000E-01 -0.15266E-01 -0.16734E-01  0.00000E+00  0.00000E+00  0.00000E+00    0.10485E+03  0.00000E+00  0.00000E+00 -0.21716E+00  0.17576E+00  0.27291E+00
  0.32999E-01  0.10534E+03    0.33000E-01 -0.15743E-01 -0.17257E-01  0.00000E+00  0.00000E+00  0.00000E+00    0.10534E+03  0.00000E+00  0.00000E+00 -0.21694E+00  0.17758E+00  0.27358E+00
  0.33999E-01  0.10583E+03    0.34000E-01 -0.16219E-01 -0.17781E-01  0.00000E+00  0.00000E+00  0.00000E+00    0.10583E+03  0.00000E+00  0.00000E+00 -0.21669E+00  0.17942E+00  0.27424E+00
  0.34999E-01  0.10631E+03    0.35000E-01 -0.16696E-01 -0.18304E-01  0.00000E+00  0.00000E+00  0.00000E+00    0.10631E+03  0.00000E+00  0.00000E+00 -0.21641E+00  0.18127E+00  0.27490E+00
  0.35999E-01  0.10680E+03    0.36000E-01 -0.17172E-01 -0.18828E-01  0.00000E+00  0.00000E+00  0.00000E+00    0.10679E+03  0.00000E+00  0.00000E+00 -0.21609E+00  0.18315E+00  0.27556E+00
  0.36999E-01  0.10727E+03    0.37000E-01 -0.17649E-01 -0.19351E-01  0.00000E+00  0.00000E+00  0.00000E+00    0.10727E+03  0.00000E+00  0.00000E+00 -0.21574E+00  0.18504E+00  0.27620E+00
  0.37999E-01  0.10775E+03    0.38000E-01 -0.18125E-01 -0.19875E-01  0.00000E+00  0.00000E+00  0.00000E+00    0.10775E+03  0.00000E+00  0.00000E+00 -0.21536E+00  0.18696E+00  0.27685E+00
  0.38999E-01  0.10822E+03    0.39000E-01 -0.18601E-01 -0.20399E-01  0.00000E+00  0.00000E+00  0.00000E+00    0.10822E+03  0.00000E+00  0.00000E+00 -0.21495E+00  0.18889E+00  0.27748E+00
  0.39999E-01  0.10866E+03    0.40000E-01 -0.19078E-01 -0.20922E-01  0.00000E+00  0.00000E+00  0.00000E+00    0.10866E+03  0.00000E+00  0.00000E+00 -0.21753E+00  0.18932E+00  0.27811E+00
  0.40999E-01  0.10916E+03    0.41000E-01 -0.19554E-01 -0.21446E-01  0.00000E+00  0.00000E+00  0.00000E+00    0.10916E+03  0.00000E+00  0.00000E+00 -0.21423E+00  0.19267E+00  0.27870E+00
  0.41999E-01  0.10959E+03    0.42000E-01 -0.20030E-01 -0.21970E-01  0.00000E+00  0.00000E+00  0.00000E+00    0.10959E+03  0.00000E+00  0.00000E+00 -0.21657E+00  0.19322E+00  0.27937E+00
  0.42999E-01  0.11006E+03    0.43000E-01 -0.20507E-01 -0.22493E-01  0.00000E+00  0.00000E+00  0.00000E+00    0.11006E+03  0.00000E+00  0.00000E+00 -0.21611E+00  0.19512E+00  0.27999E+00
  0.43999E-01  0.11052E+03    0.44000E-01 -0.20983E-01 -0.23017E-01  0.00000E+00  0.00000E+00  0.00000E+00    0.11052E+03  0.00000E+00  0.00000E+00 -0.21555E+00  0.19712E+00  0.28061E+00
  0.44999E-01  0.11098E+03    0.45000E-01 -0.21459E-01 -0.23541E-01  0.00000E+00  0.00000E+00  0.00000E+00    0.11097E+03  0.00000E+00  0.00000E+00 -0.21497E+00  0.19913E+00  0.28122E+00
  0.45999E-01  0.11143E+03    0.46000E-01 -0.21935E-01 -0.24065E-01  0.00000E+00  0.00000E+00  0.00000E+00    0.11143E+03  0.00000E+00  0.00000E+00 -0.21435E+00  0.20116E+00  0.28184E+00
  0.46999E-01  0.11188E+03    0.47000E-01 -0.22412E-01 -0.24588E-01  0.00000E+00  0.00000E+00  0.00000E+00    0.11188E+03  0.00000E+00  0.00000E+00 -0.21370E+00  0.20321E+00  0.28245E+00
  0.47999E-01  0.11233E+03    0.48000E-01 -0.22888E-01 -0.25112E-01  0.00000E+00  0.00000E+00  0.00000E+00    0.11233E+03  0.00000E+00  0.00000E+00 -0.21302E+00  0.20527E+00  0.28305E+00
  0.48999E-01  0.11278E+03    0.49000E-01 -0.23364E-01 -0.25636E-01  0.00000E+00  0.00000E+00  0.00000E+00    0.11278E+03  0.00000E+00  0.00000E+00 -0.21231E+00  0.20735E+00  0.28366E+00
  0.49999E-01  0.11324E+03    0.50000E-01 -0.23840E-01 -0.26160E-01  0.00000E+00  0.00000E+00  0.00000E+00    0.11324E+03  0.00000E+00  0.00000E+00 -0.20869E+00  0.21099E+00  0.28415E+00
  0.50999E-01  0.11367E+03    0.51000E-01 -0.24316E-01 -0.26684E-01  0.00000E+00  0.00000E+00  0.00000E+00    0.11366E+03  0.00000E+00  0.00000E+00 -0.21076E+00  0.21163E+00  0.28486E+00
  0.51999E-01  0.11413E+03    0.52000E-01 -0.24792E-01 -0.27208E-01  0.00000E+00  0.00000E+00  0.00000E+00    0.11412E+03  0.00000E+00  0.00000E+00 -0.20715E+00  0.21526E+00  0.28533E+00
  0.52999E-01  0.11454E+03    0.53000E-01 -0.25268E-01 -0.27732E-01  0.00000E+00  0.00000E+00  0.00000E+00    0.11454E+03  0.00000E+00  0.00000E+00 -0.20915E+00  0.21590E+00  0.28605E+00
  0.53999E-01  0.11500E+03    0.54000E-01 -0.25744E-01 -0.28256E-01  0.00000E+00  0.00000E+00  0.00000E+00    0.11500E+03  0.00000E+00  0.00000E+00 -0.20549E+00  0.21960E+00  0.28650E+00
  0.54999E-01  0.11541E+03    0.55000E-01 -0.26220E-01 -0.28780E-01  0.00000E+00  0.00000E+00  0.00000E+00    0.11541E+03  0.00000E+00  0.00000E+00 -0.20744E+00  0.22024E+00  0.28723E+00
  0.55999E-01  0.11583E+03    0.56000E-01 -0.26696E-01 -0.29304E-01  0.00000E+00  0.00000E+00  0.00000E+00    0.11583E+03  0.00000E+00  0.00000E+00 -0.20695E+00  0.22220E+00  0.28779E+00
  0.56999E-01  0.11627E+03    0.57000E-01 -0.27172E-01 -0.29828E-01  0.00000E+00  0.00000E+00  0.00000E+00    0.11627E+03  0.00000E+00  0.00000E+00 -0.20570E+00  0.22455E+00  0.28840E+00
  0.57999E-01  0.11668E+03    0.58000E-01 -0.27648E-01 -0.30352E-01  0.00000E+00  0.00000E+00  0.00000E+00    0.11668E+03  0.00000E+00  0.00000E+00 -0.20508E+00  0.22662E+00  0.28896E+00
  0.58999E-01  0.11712E+03    0.59000E-01 -0.28124E-01 -0.30876E-01  0.00000E+00  0.00000E+00  0.00000E+00    0.11712E+03  0.00000E+00  0.00000E+00 -0.20378E+00  0.22900E+00  0.28957E+00
  0.59999E-01  0.11753E+03    0.60000E-01 -0.28600E-01 -0.31400E-01  0.00000E+00  0.00000E+00  0.00000E+00    0.11753E+03  0.00000E+00  0.00000E+00 -0.20311E+00  0.23110E+00  0.29014E+00
  0.60999E-01  0.11796E+03    0.61000E-01 -0.29075E-01 -0.31925E-01  0.00000E+00  0.00000E+00  0.00000E+00    0.11796E+03  0.00000E+00  0.00000E+00 -0.20176E+00  0.23352E+00  0.29073E+00
  0.61999E-01  0.11836E+03    0.62000E-01 -0.29551E-01 -0.32449E-01  0.00000E+00  0.00000E+00  0.00000E+00    0.11836E+03  0.00000E+00  0.00000E+00 -0.20105E+00  0.23564E+00  0.29131E+00
  0.62999E-01  0.11879E+03    0.63000E-01 -0.30027E-01 -0.32973E-01  0.00000E+00  0.00000E+00  0.00000E+00    0.11879E+03  0.00000E+00  0.00000E+00 -0.19965E+00  0.23809E+00  0.29190E+00
  0.63999E-01  0.11919E+03    0.64000E-01 -0.30503E-01 -0.33497E-01  0.00000E+00  0.00000E+00  0.00000E+00    0.11919E+03  0.00000E+00  0.00000E+00 -0.19889E+00  0.24025E+00  0.29247E+00
  0.64999E-01  0.11960E+03    0.65000E-01 -0.30978E-01 -0.34022E-01  0.00000E+00  0.00000E+00  0.00000E+00    0.11959E+03  0.00000E+00  0.00000E+00 -0.19783E+00  0.24254E+00  0.29305E+00
  0.65999E-01  0.12000E+03    0.66000E-01 -0.31454E-01 -0.34546E-01  0.00000E+00  0.00000E+00  0.00000E+00    0.12000E+03  0.00000E+00  0.00000E+00 -0.19670E+00  0.24488E+00  0.29364E+00
  0.66999E-01  0.12041E+03    0.67000E-01 -0.31930E-01 -0.35070E-01  0.00000E+00  0.00000E+00  0.00000E+00    0.12040E+03  0.00000E+00  0.00000E+00 -0.19554E+00  0.24723E+00  0.29423E+00
  0.67999E-01  0.12081E+03    0.68000E-01 -0.32405E-01 -0.35595E-01  0.00000E+00  0.00000E+00  0.00000E+00    0.12081E+03  0.00000E+00  0.00000E+00 -0.19435E+00  0.24960E+00  0.29481E+00
  0.68999E-01  0.12121E+03    0.69000E-01 -0.32881E-01 -0.36119E-01  0.00000E+00  0.00000E+00  0.00000E+00    0.12121E+03  0.00000E+00  0.00000E+00 -0.19314E+00  0.25198E+00  0.29540E+00
  0.69999E-01  0.12161E+03    0.70000E-01 -0.33357E-01 -0.36643E-01  0.00000E+00  0.00000E+00  0.00000E+00    0.12161E+03  0.00000E+00  0.00000E+00 -0.19191E+00  0.25438E+00  0.29600E+00
  0.70999E-01  0.12201E+03    0.71000E-01 -0.33832E-01 -0.37168E-01  0.00000E+00  0.00000E+00  0.00000E+00    0.12200E+03  0.00000E+00  0.00000E+00 -0.19065E+00  0.25679E+00  0.29659E+00
  0.71999E-01  0.12240E+03    0.72000E-01 -0.34308E-01 -0.37692E-01  0.00000E+00  0.00000E+00  0.00000E+00    0.12240E+03  0.00000E+00  0.00000E+00 -0.18937E+00  0.25921E+00  0.29719E+00
  0.72998E-01  0.12279E+03    0.73000E-01 -0.34783E-01 -0.38217E-01  0.00000E+00  0.00000E+00  0.00000E+00    0.12279E+03  0.00000E+00  0.00000E+00 -0.18808E+00  0.26165E+00  0.29779E+00
  0.73998E-01  0.12318E+03    0.74000E-01 -0.35259E-01 -0.38741E-01  0.00000E+00  0.00000E+00  0.00000E+00    0.12318E+03  0.00000E+00  0.00000E+00 -0.18676E+00  0.26411E+00  0.29839E+00
  0.74998E-01  0.12357E+03    0.75000E-01 -0.35734E-01 -0.39266E-01  0.00000E+00  0.00000E+00  0.00000E+00    0.12357E+03  0.00000E+00  0.00000E+00 -0.18542E+00  0.26658E+00  0.29899E+00
  0.75998E-01  0.12395E+03    0.76000E-01 -0.36209E-01 -0.39791E-01  0.00000E+00  0.00000E+00  0.00000E+00    0.12395E+03  0.00000E+00  0.00000E+00 -0.18406E+00  0.26906E+00  0.29960E+00
  0.76998E-01  0.12434E+03    0.77000E-01 -0.36685E-01 -0.40315E-01  0.00000E+00  0.00000E+00  0.00000E+00    0.12434E+03  0.00000E+00  0.00000E+00 -0.18267E+00  0.27156E+00  0.30022E+00
  0.77998E-01  0.12472E+03    0.78000E-01 -0.37160E-01 -0.40840E-01  0.00000E+00  0.00000E+00  0.00000E+00    0.12472E+03  0.00000E+00  0.00000E+00 -0.18127E+00  0.27408E+00  0.30084E+00
  0.78998E-01  0.12510E+03    0.79000E-01 -0.37635E-01 -0.41365E-01  0.00000E+00  0.00000E+00  0.00000E+00    0.12510E+03  0.00000E+00  0.00000E+00 -0.17985E+00  0.27661E+00  0.30147E+00
  0.79998E-01  0.12548E+03    0.80000E-01 -0.38111E-01 -0.41889E-01  0.00000E+00  0.00000E+00  0.00000E+00    0.12548E+03  0.00000E+00  0.00000E+00 -0.17841E+00  0.27916E+00  0.30209E+00
  0.80998E-01  0.12586E+03    0.81000E-01 -0.38586E-01 -0.42414E-01  0.00000E+00  0.00000E+00  0.00000E+00    0.12585E+03  0.00000E+00  0.00000E+00 -0.17014E+00  0.28486E+00  0.30277E+00
  0.81998E-01  0.12621E+03    0.82000E-01 -0.39061E-01 -0.42939E-01  0.00000E+00  0.00000E+00  0.00000E+00    0.12620E+03  0.00000E+00  0.00000E+00 -0.17044E+00  0.28707E+00  0.30350E+00
  0.82998E-01  0.12657E+03    0.83000E-01 -0.39537E-01 -0.43463E-01  0.00000E+00  0.00000E+00  0.00000E+00    0.12657E+03  0.00000E+00  0.00000E+00 -0.16866E+00  0.28976E+00  0.30417E+00
  0.83998E-01  0.12694E+03    0.84000E-01 -0.40012E-01 -0.43988E-01  0.00000E+00  0.00000E+00  0.00000E+00    0.12694E+03  0.00000E+00  0.00000E+00 -0.16713E+00  0.29239E+00  0.30483E+00
  0.84998E-01  0.12731E+03    0.85000E-01 -0.40487E-01 -0.44513E-01  0.00000E+00  0.00000E+00  0.00000E+00    0.12730E+03  0.00000E+00  0.00000E+00 -0.16559E+00  0.29504E+00  0.30550E+00
  0.85998E-01  0.12772E+03    0.86000E-01 -0.40962E-01 -0.45038E-01  0.00000E+00  0.00000E+00  0.00000E+00    0.12772E+03  0.00000E+00  0.00000E+00 -0.16249E+00  0.29834E+00  0.30609E+00
  0.86998E-01  0.12809E+03    0.87000E-01 -0.41437E-01 -0.45563E-01  0.00000E+00  0.00000E+00  0.00000E+00    0.12809E+03  0.00000E+00  0.00000E+00 -0.16131E+00  0.30093E+00  0.30675E+00
  0.87998E-01  0.12846E+03    0.88000E-01 -0.41912E-01 -0.46088E-01  0.00000E+00  0.00000E+00  0.00000E+00    0.12845E+03  0.00000E+00  0.00000E+00 -0.15971E+00  0.30364E+00  0.30744E+00
  0.88998E-01  0.12882E+03    0.89000E-01 -0.42387E-01 -0.46613E-01  0.00000E+00  0.00000E+00  0.00000E+00    0.12881E+03  0.00000E+00  0.00000E+00 -0.15809E+00  0.30636E+00  0.30814E+00
  0.89998E-01  0.12918E+03    0.90000E-01 -0.42862E-01 -0.47138E-01  0.00000E+00  0.00000E+00  0.00000E+00    0.12917E+03  0.00000E+00  0.00000E+00 -0.15646E+00  0.30910E+00  0.30884E+00
  0.90998E-01  0.12953E+03    0.91000E-01 -0.43337E-01 -0.47663E-01  0.00000E+00  0.00000E+00  0.00000E+00    0.12953E+03  0.00000E+00  0.00000E+00 -0.15481E+00  0.31185E+00  0.30956E+00
  0.91998E-01  0.12989E+03    0.92000E-01 -0.43812E-01 -0.48188E-01  0.00000E+00  0.00000E+00  0.00000E+00    0.12988E+03  0.00000E+00  0.00000E+00 -0.15315E+00  0.31462E+00  0.31029E+00
  0.92998E-01  0.13024E+03    0.93000E-01 -0.44287E-01 -0.48713E-01  0.00000E+00  0.00000E+00  0.00000E+00    0.13024E+03  0.00000E+00  0.00000E+00 -0.15147E+00  0.31741E+00  0.31103E+00
  0.93998E-01  0.13059E+03    0.94000E-01 -0.44762E-01 -0.49238E-01  0.00000E+00  0.00000E+00  0.00000E+00    0.13059E+03  0.00000E+00  0.00000E+00 -0.14977E+00  0.32022E+00  0.31178E+00
  0.94998E-01  0.13094E+03    0.95000E-01 -0.45237E-01 -0.49763E-01  0.00000E+00  0.00000E+00  0.00000E+00    0.13094E+03  0.00000E+00  0.00000E+00 -0.14805E+00  0.32304E+00  0.31254E+00
  0.95998E-01  0.13129E+03    0.96000E-01 -0.45712E-01 -0.50288E-01  0.00000E+00  0.00000E+00  0.00000E+00    0.13129E+03  0.00000E+00  0.00000E+00 -0.14632E+00  0.32589E+00  0.31331E+00
  0.96998E-01  0.13164E+03    0.97000E-01 -0.46187E-01 -0.50813E-01  0.00000E+00  0.00000E+00  0.00000E+00    0.13163E+03  0.00000E+00  0.00000E+00 -0.14458E+00  0.32875E+00  0.31410E+00
  0.97998E-01  0.13198E+03    0.98000E-01 -0.46662E-01 -0.51338E-01  0.00000E+00  0.00000E+00  0.00000E+00    0.13198E+03  0.00000E+00  0.00000E+00 -0.14281E+00  0.33163E+00  0.31489E+00
  0.98998E-01  0.13232E+03    0.99000E-01 -0.47136E-01 -0.51864E-01  0.00000E+00  0.00000E+00  0.00000E+00    0.13232E+03  0.00000E+00  0.00000E+00 -0.14104E+00  0.33452E+00  0.31570E+00
  0.99998E-01  0.13266E+03    0.10000E+00 -0.47611E-01 -0.52389E-01  0.00000E+00  0.00000E+00  0.00000E+00    0.13266E+03  0.00000E+00  0.00000E+00 -0.13925E+00  0.33744E+00  0.31653E+00
