          Evm          Svm            E11          E22          E33          E23          E13          E12         SCAU11       SCAU22       SCAU33       SCAU23       SCAU13       SCAU12      TEMP
  0.00000E+00  0.12935E+03    0.00000E+00  0.00000E+00  0.00000E+00  0.00000E+00  0.00000E+00  0.00000E+00    0.12934E+03  0.00000E+00  0.00000E+00 -0.29999E+00  0.18599E+00  0.35740E+00
  0.99998E-03  0.12990E+03    0.10000E-02 -0.47967E-03 -0.52033E-03  0.00000E+00  0.00000E+00  0.00000E+00    0.12989E+03  0.00000E+00  0.00000E+00 -0.30692E+00  0.18986E+00  0.36123E+00
  0.20000E-02  0.13042E+03    0.20000E-02 -0.95785E-03 -0.10421E-02  0.00000E+00  0.00000E+00  0.00000E+00    0.13041E+03  0.00000E+00  0.00000E+00 -0.30263E+00  0.19212E+00  0.36337E+00
  0.29999E-02  0.13096E+03    0.30000E-02 -0.14357E-02 -0.15643E-02  0.00000E+00  0.00000E+00  0.00000E+00    0.13096E+03  0.00000E+00  0.00000E+00 -0.30620E+00  0.19228E+00  0.36508E+00
  0.39999E-02  0.13159E+03    0.40000E-02 -0.19133E-02 -0.20867E-02  0.00000E+00  0.00000E+00  0.00000E+00    0.13159E+03  0.00000E+00  0.00000E+00 -0.30413E+00  0.19488E+00  0.36612E+00
  0.49999E-02  0.13213E+03    0.50000E-02 -0.23907E-02 -0.26093E-02  0.00000E+00  0.00000E+00  0.00000E+00    0.13213E+03  0.00000E+00  0.00000E+00 -0.30736E+00  0.19513E+00  0.36710E+00
  0.59999E-02  0.13276E+03    0.60000E-02 -0.28681E-02 -0.31319E-02  0.00000E+00  0.00000E+00  0.00000E+00    0.13275E+03  0.00000E+00  0.00000E+00 -0.30518E+00  0.19780E+00  0.36801E+00
  0.69998E-02  0.13329E+03    0.70000E-02 -0.33454E-02 -0.36546E-02  0.00000E+00  0.00000E+00  0.00000E+00    0.13328E+03  0.00000E+00  0.00000E+00 -0.30833E+00  0.19815E+00  0.36876E+00
  0.79998E-02  0.13390E+03    0.80000E-02 -0.38226E-02 -0.41774E-02  0.00000E+00  0.00000E+00  0.00000E+00    0.13390E+03  0.00000E+00  0.00000E+00 -0.30604E+00  0.20086E+00  0.36959E+00
  0.89998E-02  0.13443E+03    0.90000E-02 -0.42997E-02 -0.47003E-02  0.00000E+00  0.00000E+00  0.00000E+00    0.13442E+03  0.00000E+00  0.00000E+00 -0.30911E+00  0.20129E+00  0.37025E+00
  0.99998E-02  0.13503E+03    0.10000E-01 -0.47768E-02 -0.52232E-02  0.00000E+00  0.00000E+00  0.00000E+00    0.13503E+03  0.00000E+00  0.00000E+00 -0.30669E+00  0.20405E+00  0.37102E+00
  0.11000E-01  0.13555E+03    0.11000E-01 -0.52539E-02 -0.57461E-02  0.00000E+00  0.00000E+00  0.00000E+00    0.13555E+03  0.00000E+00  0.00000E+00 -0.30969E+00  0.20454E+00  0.37163E+00
  0.12000E-01  0.13615E+03    0.12000E-01 -0.57309E-02 -0.62691E-02  0.00000E+00  0.00000E+00  0.00000E+00    0.13615E+03  0.00000E+00  0.00000E+00 -0.30715E+00  0.20736E+00  0.37234E+00
  0.13000E-01  0.13667E+03    0.13000E-01 -0.62080E-02 -0.67920E-02  0.00000E+00  0.00000E+00  0.00000E+00    0.13666E+03  0.00000E+00  0.00000E+00 -0.31007E+00  0.20790E+00  0.37293E+00
  0.14000E-01  0.13726E+03    0.14000E-01 -0.66850E-02 -0.73150E-02  0.00000E+00  0.00000E+00  0.00000E+00    0.13726E+03  0.00000E+00  0.00000E+00 -0.30741E+00  0.21079E+00  0.37361E+00
  0.15000E-01  0.13777E+03    0.15000E-01 -0.71619E-02 -0.78381E-02  0.00000E+00  0.00000E+00  0.00000E+00    0.13776E+03  0.00000E+00  0.00000E+00 -0.31026E+00  0.21137E+00  0.37419E+00
  0.16000E-01  0.13835E+03    0.16000E-01 -0.76389E-02 -0.83611E-02  0.00000E+00  0.00000E+00  0.00000E+00    0.13835E+03  0.00000E+00  0.00000E+00 -0.30749E+00  0.21432E+00  0.37481E+00
  0.17000E-01  0.13885E+03    0.17000E-01 -0.81158E-02 -0.88842E-02  0.00000E+00  0.00000E+00  0.00000E+00    0.13885E+03  0.00000E+00  0.00000E+00 -0.31026E+00  0.21495E+00  0.37538E+00
  0.18000E-01  0.13938E+03    0.18000E-01 -0.85927E-02 -0.94073E-02  0.00000E+00  0.00000E+00  0.00000E+00    0.13938E+03  0.00000E+00  0.00000E+00 -0.31058E+00  0.21661E+00  0.37593E+00
  0.19000E-01  0.13996E+03    0.19000E-01 -0.90696E-02 -0.99304E-02  0.00000E+00  0.00000E+00  0.00000E+00    0.13996E+03  0.00000E+00  0.00000E+00 -0.30728E+00  0.21983E+00  0.37652E+00
  0.20000E-01  0.14046E+03    0.20000E-01 -0.95464E-02 -0.10454E-01  0.00000E+00  0.00000E+00  0.00000E+00    0.14046E+03  0.00000E+00  0.00000E+00 -0.30993E+00  0.22051E+00  0.37709E+00
  0.21000E-01  0.14098E+03    0.21000E-01 -0.10023E-01 -0.10977E-01  0.00000E+00  0.00000E+00  0.00000E+00    0.14097E+03  0.00000E+00  0.00000E+00 -0.31011E+00  0.22225E+00  0.37762E+00
  0.22000E-01  0.14150E+03    0.22000E-01 -0.10500E-01 -0.11500E-01  0.00000E+00  0.00000E+00  0.00000E+00    0.14150E+03  0.00000E+00  0.00000E+00 -0.30993E+00  0.22417E+00  0.37815E+00
  0.22999E-01  0.14202E+03    0.23000E-01 -0.10977E-01 -0.12023E-01  0.00000E+00  0.00000E+00  0.00000E+00    0.14202E+03  0.00000E+00  0.00000E+00 -0.30965E+00  0.22612E+00  0.37868E+00
  0.23999E-01  0.14254E+03    0.24000E-01 -0.11454E-01 -0.12546E-01  0.00000E+00  0.00000E+00  0.00000E+00    0.14254E+03  0.00000E+00  0.00000E+00 -0.30932E+00  0.22810E+00  0.37921E+00
  0.24999E-01  0.14306E+03    0.25000E-01 -0.11930E-01 -0.13070E-01  0.00000E+00  0.00000E+00  0.00000E+00    0.14305E+03  0.00000E+00  0.00000E+00 -0.30894E+00  0.23011E+00  0.37973E+00
  0.25999E-01  0.14357E+03    0.26000E-01 -0.12407E-01 -0.13593E-01  0.00000E+00  0.00000E+00  0.00000E+00    0.14357E+03  0.00000E+00  0.00000E+00 -0.30853E+00  0.23214E+00  0.38024E+00
  0.26999E-01  0.14408E+03    0.27000E-01 -0.12884E-01 -0.14116E-01  0.00000E+00  0.00000E+00  0.00000E+00    0.14408E+03  0.00000E+00  0.00000E+00 -0.30807E+00  0.23419E+00  0.38074E+00
  0.27999E-01  0.14459E+03    0.28000E-01 -0.13360E-01 -0.14640E-01  0.00000E+00  0.00000E+00  0.00000E+00    0.14459E+03  0.00000E+00  0.00000E+00 -0.30758E+00  0.23627E+00  0.38123E+00
  0.28999E-01  0.14509E+03    0.29000E-01 -0.13837E-01 -0.15163E-01  0.00000E+00  0.00000E+00  0.00000E+00    0.14509E+03  0.00000E+00  0.00000E+00 -0.30703E+00  0.23838E+00  0.38172E+00
  0.29999E-01  0.14559E+03    0.30000E-01 -0.14314E-01 -0.15686E-01  0.00000E+00  0.00000E+00  0.00000E+00    0.14559E+03  0.00000E+00  0.00000E+00 -0.30645E+00  0.24051E+00  0.38221E+00
  0.30999E-01  0.14609E+03    0.31000E-01 -0.14790E-01 -0.16210E-01  0.00000E+00  0.00000E+00  0.00000E+00    0.14609E+03  0.00000E+00  0.00000E+00 -0.30583E+00  0.24266E+00  0.38269E+00
  0.31999E-01  0.14659E+03    0.32000E-01 -0.15267E-01 -0.16733E-01  0.00000E+00  0.00000E+00  0.00000E+00    0.14659E+03  0.00000E+00  0.00000E+00 -0.30517E+00  0.24484E+00  0.38316E+00
  0.32999E-01  0.14708E+03    0.33000E-01 -0.15743E-01 -0.17257E-01  0.00000E+00  0.00000E+00  0.00000E+00    0.14708E+03  0.00000E+00  0.00000E+00 -0.30448E+00  0.24704E+00  0.38363E+00
  0.33999E-01  0.14757E+03    0.34000E-01 -0.16220E-01 -0.17780E-01  0.00000E+00  0.00000E+00  0.00000E+00    0.14757E+03  0.00000E+00  0.00000E+00 -0.30374E+00  0.24927E+00  0.38410E+00
  0.34999E-01  0.14806E+03    0.35000E-01 -0.16696E-01 -0.18304E-01  0.00000E+00  0.00000E+00  0.00000E+00    0.14806E+03  0.00000E+00  0.00000E+00 -0.30296E+00  0.25151E+00  0.38456E+00
  0.35999E-01  0.14854E+03    0.36000E-01 -0.17173E-01 -0.18827E-01  0.00000E+00  0.00000E+00  0.00000E+00    0.14854E+03  0.00000E+00  0.00000E+00 -0.30215E+00  0.25378E+00  0.38502E+00
  0.36999E-01  0.14903E+03    0.37000E-01 -0.17649E-01 -0.19351E-01  0.00000E+00  0.00000E+00  0.00000E+00    0.14902E+03  0.00000E+00  0.00000E+00 -0.30130E+00  0.25608E+00  0.38547E+00
  0.37999E-01  0.14950E+03    0.38000E-01 -0.18125E-01 -0.19875E-01  0.00000E+00  0.00000E+00  0.00000E+00    0.14950E+03  0.00000E+00  0.00000E+00 -0.30042E+00  0.25839E+00  0.38592E+00
  0.38999E-01  0.14998E+03    0.39000E-01 -0.18602E-01 -0.20398E-01  0.00000E+00  0.00000E+00  0.00000E+00    0.14998E+03  0.00000E+00  0.00000E+00 -0.29950E+00  0.26073E+00  0.38636E+00
  0.39999E-01  0.15045E+03    0.40000E-01 -0.19078E-01 -0.20922E-01  0.00000E+00  0.00000E+00  0.00000E+00    0.15045E+03  0.00000E+00  0.00000E+00 -0.29854E+00  0.26309E+00  0.38680E+00
  0.40999E-01  0.15092E+03    0.41000E-01 -0.19554E-01 -0.21446E-01  0.00000E+00  0.00000E+00  0.00000E+00    0.15092E+03  0.00000E+00  0.00000E+00 -0.29755E+00  0.26547E+00  0.38724E+00
  0.41999E-01  0.15139E+03    0.42000E-01 -0.20031E-01 -0.21969E-01  0.00000E+00  0.00000E+00  0.00000E+00    0.15139E+03  0.00000E+00  0.00000E+00 -0.29652E+00  0.26788E+00  0.38768E+00
  0.42999E-01  0.15186E+03    0.43000E-01 -0.20507E-01 -0.22493E-01  0.00000E+00  0.00000E+00  0.00000E+00    0.15185E+03  0.00000E+00  0.00000E+00 -0.29547E+00  0.27030E+00  0.38811E+00
  0.43999E-01  0.15232E+03    0.44000E-01 -0.20983E-01 -0.23017E-01  0.00000E+00  0.00000E+00  0.00000E+00    0.15232E+03  0.00000E+00  0.00000E+00 -0.29438E+00  0.27274E+00  0.38854E+00
  0.44999E-01  0.15278E+03    0.45000E-01 -0.21459E-01 -0.23541E-01  0.00000E+00  0.00000E+00  0.00000E+00    0.15278E+03  0.00000E+00  0.00000E+00 -0.29326E+00  0.27521E+00  0.38897E+00
  0.45999E-01  0.15324E+03    0.46000E-01 -0.21936E-01 -0.24064E-01  0.00000E+00  0.00000E+00  0.00000E+00    0.15324E+03  0.00000E+00  0.00000E+00 -0.29210E+00  0.27770E+00  0.38940E+00
  0.46999E-01  0.15369E+03    0.47000E-01 -0.22412E-01 -0.24588E-01  0.00000E+00  0.00000E+00  0.00000E+00    0.15369E+03  0.00000E+00  0.00000E+00 -0.29091E+00  0.28020E+00  0.38982E+00
  0.47999E-01  0.15410E+03    0.48000E-01 -0.22888E-01 -0.25112E-01  0.00000E+00  0.00000E+00  0.00000E+00    0.15410E+03  0.00000E+00  0.00000E+00 -0.28414E+00  0.28467E+00  0.39037E+00
  0.48999E-01  0.15457E+03    0.49000E-01 -0.23364E-01 -0.25636E-01  0.00000E+00  0.00000E+00  0.00000E+00    0.15457E+03  0.00000E+00  0.00000E+00 -0.28295E+00  0.28751E+00  0.39079E+00
  0.49999E-01  0.15502E+03    0.50000E-01 -0.23840E-01 -0.26160E-01  0.00000E+00  0.00000E+00  0.00000E+00    0.15502E+03  0.00000E+00  0.00000E+00 -0.28170E+00  0.29013E+00  0.39121E+00
  0.50999E-01  0.15547E+03    0.51000E-01 -0.24316E-01 -0.26684E-01  0.00000E+00  0.00000E+00  0.00000E+00    0.15546E+03  0.00000E+00  0.00000E+00 -0.28038E+00  0.29275E+00  0.39164E+00
  0.51999E-01  0.15591E+03    0.52000E-01 -0.24792E-01 -0.27208E-01  0.00000E+00  0.00000E+00  0.00000E+00    0.15590E+03  0.00000E+00  0.00000E+00 -0.27903E+00  0.29539E+00  0.39206E+00
  0.52999E-01  0.15635E+03    0.53000E-01 -0.25268E-01 -0.27732E-01  0.00000E+00  0.00000E+00  0.00000E+00    0.15634E+03  0.00000E+00  0.00000E+00 -0.27765E+00  0.29804E+00  0.39248E+00
  0.53999E-01  0.15685E+03    0.54000E-01 -0.25744E-01 -0.28256E-01  0.00000E+00  0.00000E+00  0.00000E+00    0.15684E+03  0.00000E+00  0.00000E+00 -0.27476E+00  0.30116E+00  0.39294E+00
  0.54999E-01  0.15729E+03    0.55000E-01 -0.26220E-01 -0.28780E-01  0.00000E+00  0.00000E+00  0.00000E+00    0.15729E+03  0.00000E+00  0.00000E+00 -0.27378E+00  0.30381E+00  0.39332E+00
  0.55999E-01  0.15772E+03    0.56000E-01 -0.26696E-01 -0.29304E-01  0.00000E+00  0.00000E+00  0.00000E+00    0.15772E+03  0.00000E+00  0.00000E+00 -0.27231E+00  0.30652E+00  0.39374E+00
  0.56999E-01  0.15815E+03    0.57000E-01 -0.27172E-01 -0.29828E-01  0.00000E+00  0.00000E+00  0.00000E+00    0.15815E+03  0.00000E+00  0.00000E+00 -0.27081E+00  0.30926E+00  0.39416E+00
  0.57999E-01  0.15858E+03    0.58000E-01 -0.27647E-01 -0.30353E-01  0.00000E+00  0.00000E+00  0.00000E+00    0.15858E+03  0.00000E+00  0.00000E+00 -0.26929E+00  0.31201E+00  0.39459E+00
  0.58999E-01  0.15901E+03    0.59000E-01 -0.28123E-01 -0.30877E-01  0.00000E+00  0.00000E+00  0.00000E+00    0.15900E+03  0.00000E+00  0.00000E+00 -0.26774E+00  0.31478E+00  0.39501E+00
  0.59999E-01  0.15943E+03    0.60000E-01 -0.28599E-01 -0.31401E-01  0.00000E+00  0.00000E+00  0.00000E+00    0.15943E+03  0.00000E+00  0.00000E+00 -0.26616E+00  0.31757E+00  0.39544E+00
  0.60999E-01  0.15985E+03    0.61000E-01 -0.29075E-01 -0.31925E-01  0.00000E+00  0.00000E+00  0.00000E+00    0.15985E+03  0.00000E+00  0.00000E+00 -0.26456E+00  0.32037E+00  0.39588E+00
  0.61999E-01  0.16027E+03    0.62000E-01 -0.29550E-01 -0.32450E-01  0.00000E+00  0.00000E+00  0.00000E+00    0.16027E+03  0.00000E+00  0.00000E+00 -0.26293E+00  0.32319E+00  0.39631E+00
  0.62999E-01  0.16068E+03    0.63000E-01 -0.30026E-01 -0.32974E-01  0.00000E+00  0.00000E+00  0.00000E+00    0.16068E+03  0.00000E+00  0.00000E+00 -0.26127E+00  0.32603E+00  0.39675E+00
  0.63999E-01  0.16110E+03    0.64000E-01 -0.30502E-01 -0.33498E-01  0.00000E+00  0.00000E+00  0.00000E+00    0.16110E+03  0.00000E+00  0.00000E+00 -0.25959E+00  0.32889E+00  0.39719E+00
  0.64999E-01  0.16151E+03    0.65000E-01 -0.30977E-01 -0.34023E-01  0.00000E+00  0.00000E+00  0.00000E+00    0.16151E+03  0.00000E+00  0.00000E+00 -0.25788E+00  0.33176E+00  0.39764E+00
  0.65999E-01  0.16192E+03    0.66000E-01 -0.31453E-01 -0.34547E-01  0.00000E+00  0.00000E+00  0.00000E+00    0.16192E+03  0.00000E+00  0.00000E+00 -0.25615E+00  0.33465E+00  0.39809E+00
  0.66999E-01  0.16233E+03    0.67000E-01 -0.31929E-01 -0.35071E-01  0.00000E+00  0.00000E+00  0.00000E+00    0.16232E+03  0.00000E+00  0.00000E+00 -0.25439E+00  0.33756E+00  0.39854E+00
  0.67999E-01  0.16273E+03    0.68000E-01 -0.32404E-01 -0.35596E-01  0.00000E+00  0.00000E+00  0.00000E+00    0.16273E+03  0.00000E+00  0.00000E+00 -0.25261E+00  0.34049E+00  0.39900E+00
  0.68999E-01  0.16314E+03    0.69000E-01 -0.32880E-01 -0.36120E-01  0.00000E+00  0.00000E+00  0.00000E+00    0.16313E+03  0.00000E+00  0.00000E+00 -0.25080E+00  0.34343E+00  0.39946E+00
  0.69999E-01  0.16354E+03    0.70000E-01 -0.33355E-01 -0.36645E-01  0.00000E+00  0.00000E+00  0.00000E+00    0.16353E+03  0.00000E+00  0.00000E+00 -0.24897E+00  0.34639E+00  0.39993E+00
  0.70999E-01  0.16393E+03    0.71000E-01 -0.33831E-01 -0.37169E-01  0.00000E+00  0.00000E+00  0.00000E+00    0.16393E+03  0.00000E+00  0.00000E+00 -0.24711E+00  0.34937E+00  0.40041E+00
  0.71998E-01  0.16433E+03    0.72000E-01 -0.34306E-01 -0.37694E-01  0.00000E+00  0.00000E+00  0.00000E+00    0.16433E+03  0.00000E+00  0.00000E+00 -0.24523E+00  0.35236E+00  0.40089E+00
  0.72998E-01  0.16473E+03    0.73000E-01 -0.34782E-01 -0.38218E-01  0.00000E+00  0.00000E+00  0.00000E+00    0.16472E+03  0.00000E+00  0.00000E+00 -0.24333E+00  0.35538E+00  0.40138E+00
  0.73998E-01  0.16512E+03    0.74000E-01 -0.35257E-01 -0.38743E-01  0.00000E+00  0.00000E+00  0.00000E+00    0.16512E+03  0.00000E+00  0.00000E+00 -0.24140E+00  0.35841E+00  0.40187E+00
  0.74998E-01  0.16551E+03    0.75000E-01 -0.35732E-01 -0.39268E-01  0.00000E+00  0.00000E+00  0.00000E+00    0.16551E+03  0.00000E+00  0.00000E+00 -0.23945E+00  0.36146E+00  0.40238E+00
  0.75998E-01  0.16590E+03    0.76000E-01 -0.36208E-01 -0.39792E-01  0.00000E+00  0.00000E+00  0.00000E+00    0.16589E+03  0.00000E+00  0.00000E+00 -0.23748E+00  0.36452E+00  0.40289E+00
  0.76998E-01  0.16628E+03    0.77000E-01 -0.36683E-01 -0.40317E-01  0.00000E+00  0.00000E+00  0.00000E+00    0.16628E+03  0.00000E+00  0.00000E+00 -0.23549E+00  0.36761E+00  0.40340E+00
  0.77998E-01  0.16667E+03    0.78000E-01 -0.37158E-01 -0.40842E-01  0.00000E+00  0.00000E+00  0.00000E+00    0.16667E+03  0.00000E+00  0.00000E+00 -0.23347E+00  0.37071E+00  0.40393E+00
  0.78998E-01  0.16705E+03    0.79000E-01 -0.37633E-01 -0.41367E-01  0.00000E+00  0.00000E+00  0.00000E+00    0.16705E+03  0.00000E+00  0.00000E+00 -0.23143E+00  0.37383E+00  0.40447E+00
  0.79998E-01  0.16743E+03    0.80000E-01 -0.38109E-01 -0.41891E-01  0.00000E+00  0.00000E+00  0.00000E+00    0.16743E+03  0.00000E+00  0.00000E+00 -0.22937E+00  0.37697E+00  0.40501E+00
  0.80998E-01  0.16781E+03    0.81000E-01 -0.38584E-01 -0.42416E-01  0.00000E+00  0.00000E+00  0.00000E+00    0.16781E+03  0.00000E+00  0.00000E+00 -0.22729E+00  0.38013E+00  0.40557E+00
  0.81998E-01  0.16819E+03    0.82000E-01 -0.39059E-01 -0.42941E-01  0.00000E+00  0.00000E+00  0.00000E+00    0.16818E+03  0.00000E+00  0.00000E+00 -0.22519E+00  0.38331E+00  0.40613E+00
  0.82998E-01  0.16856E+03    0.83000E-01 -0.39534E-01 -0.43466E-01  0.00000E+00  0.00000E+00  0.00000E+00    0.16856E+03  0.00000E+00  0.00000E+00 -0.22307E+00  0.38650E+00  0.40671E+00
  0.83998E-01  0.16893E+03    0.84000E-01 -0.40009E-01 -0.43991E-01  0.00000E+00  0.00000E+00  0.00000E+00    0.16893E+03  0.00000E+00  0.00000E+00 -0.22093E+00  0.38972E+00  0.40729E+00
  0.84998E-01  0.16931E+03    0.85000E-01 -0.40484E-01 -0.44516E-01  0.00000E+00  0.00000E+00  0.00000E+00    0.16930E+03  0.00000E+00  0.00000E+00 -0.21877E+00  0.39295E+00  0.40789E+00
  0.85998E-01  0.16967E+03    0.86000E-01 -0.40960E-01 -0.45040E-01  0.00000E+00  0.00000E+00  0.00000E+00    0.16967E+03  0.00000E+00  0.00000E+00 -0.21659E+00  0.39621E+00  0.40850E+00
  0.86998E-01  0.17004E+03    0.87000E-01 -0.41435E-01 -0.45565E-01  0.00000E+00  0.00000E+00  0.00000E+00    0.17004E+03  0.00000E+00  0.00000E+00 -0.21439E+00  0.39949E+00  0.40912E+00
  0.87998E-01  0.17041E+03    0.88000E-01 -0.41910E-01 -0.46090E-01  0.00000E+00  0.00000E+00  0.00000E+00    0.17040E+03  0.00000E+00  0.00000E+00 -0.21217E+00  0.40278E+00  0.40976E+00
  0.88998E-01  0.17077E+03    0.89000E-01 -0.42385E-01 -0.46615E-01  0.00000E+00  0.00000E+00  0.00000E+00    0.17077E+03  0.00000E+00  0.00000E+00 -0.20993E+00  0.40610E+00  0.41041E+00
  0.89998E-01  0.17113E+03    0.90000E-01 -0.42860E-01 -0.47140E-01  0.00000E+00  0.00000E+00  0.00000E+00    0.17113E+03  0.00000E+00  0.00000E+00 -0.20767E+00  0.40943E+00  0.41107E+00
  0.90998E-01  0.17149E+03    0.91000E-01 -0.43335E-01 -0.47665E-01  0.00000E+00  0.00000E+00  0.00000E+00    0.17149E+03  0.00000E+00  0.00000E+00 -0.20540E+00  0.41279E+00  0.41175E+00
  0.91998E-01  0.17185E+03    0.92000E-01 -0.43810E-01 -0.48190E-01  0.00000E+00  0.00000E+00  0.00000E+00    0.17185E+03  0.00000E+00  0.00000E+00 -0.20310E+00  0.41617E+00  0.41244E+00
  0.92998E-01  0.17221E+03    0.93000E-01 -0.44284E-01 -0.48716E-01  0.00000E+00  0.00000E+00  0.00000E+00    0.17220E+03  0.00000E+00  0.00000E+00 -0.20079E+00  0.41957E+00  0.41315E+00
  0.93998E-01  0.17256E+03    0.94000E-01 -0.44759E-01 -0.49241E-01  0.00000E+00  0.00000E+00  0.00000E+00    0.17256E+03  0.00000E+00  0.00000E+00 -0.19847E+00  0.42299E+00  0.41387E+00
  0.94998E-01  0.17292E+03    0.95000E-01 -0.45234E-01 -0.49766E-01  0.00000E+00  0.00000E+00  0.00000E+00    0.17291E+03  0.00000E+00  0.00000E+00 -0.19612E+00  0.42643E+00  0.41461E+00
  0.95998E-01  0.17327E+03    0.96000E-01 -0.45709E-01 -0.50291E-01  0.00000E+00  0.00000E+00  0.00000E+00    0.17326E+03  0.00000E+00  0.00000E+00 -0.19376E+00  0.42990E+00  0.41536E+00
  0.96998E-01  0.17362E+03    0.97000E-01 -0.46184E-01 -0.50816E-01  0.00000E+00  0.00000E+00  0.00000E+00    0.17361E+03  0.00000E+00  0.00000E+00 -0.19138E+00  0.43339E+00  0.41613E+00
  0.97998E-01  0.17396E+03    0.98000E-01 -0.46659E-01 -0.51341E-01  0.00000E+00  0.00000E+00  0.00000E+00    0.17396E+03  0.00000E+00  0.00000E+00 -0.18899E+00  0.43690E+00  0.41692E+00
  0.98998E-01  0.17431E+03    0.99000E-01 -0.47133E-01 -0.51867E-01  0.00000E+00  0.00000E+00  0.00000E+00    0.17431E+03  0.00000E+00  0.00000E+00 -0.18658E+00  0.44043E+00  0.41773E+00
  0.99998E-01  0.17466E+03    0.10000E+00 -0.47608E-01 -0.52392E-01  0.00000E+00  0.00000E+00  0.00000E+00    0.17465E+03  0.00000E+00  0.00000E+00 -0.18415E+00  0.44398E+00  0.41856E+00
