          Evm          Svm            E11          E22          E33          E23          E13          E12         SCAU11       SCAU22       SCAU33       SCAU23       SCAU13       SCAU12      TEMP
  0.00000E+00  0.89869E+02    0.00000E+00  0.00000E+00  0.00000E+00  0.00000E+00  0.00000E+00  0.00000E+00    0.89866E+02  0.00000E+00  0.00000E+00 -0.20843E+00  0.12922E+00  0.24832E+00
  0.99998E-03  0.90431E+02    0.10000E-02 -0.47967E-03 -0.52033E-03  0.00000E+00  0.00000E+00  0.00000E+00    0.90429E+02  0.00000E+00  0.00000E+00 -0.21290E+00  0.13231E+00  0.25156E+00
  0.20000E-02  0.90962E+02    0.20000E-02 -0.95784E-03 -0.10422E-02  0.00000E+00  0.00000E+00  0.00000E+00    0.90960E+02  0.00000E+00  0.00000E+00 -0.21320E+00  0.13334E+00  0.25369E+00
  0.29999E-02  0.91539E+02    0.30000E-02 -0.14356E-02 -0.15644E-02  0.00000E+00  0.00000E+00  0.00000E+00    0.91537E+02  0.00000E+00  0.00000E+00 -0.21234E+00  0.13536E+00  0.25506E+00
  0.39999E-02  0.92132E+02    0.40000E-02 -0.19132E-02 -0.20868E-02  0.00000E+00  0.00000E+00  0.00000E+00    0.92130E+02  0.00000E+00  0.00000E+00 -0.21327E+00  0.13666E+00  0.25635E+00
  0.49999E-02  0.92713E+02    0.50000E-02 -0.23906E-02 -0.26094E-02  0.00000E+00  0.00000E+00  0.00000E+00    0.92711E+02  0.00000E+00  0.00000E+00 -0.21415E+00  0.13789E+00  0.25743E+00
  0.59999E-02  0.93291E+02    0.60000E-02 -0.28679E-02 -0.31321E-02  0.00000E+00  0.00000E+00  0.00000E+00    0.93289E+02  0.00000E+00  0.00000E+00 -0.21496E+00  0.13913E+00  0.25846E+00
  0.69998E-02  0.93865E+02    0.70000E-02 -0.33452E-02 -0.36548E-02  0.00000E+00  0.00000E+00  0.00000E+00    0.93862E+02  0.00000E+00  0.00000E+00 -0.21573E+00  0.14041E+00  0.25944E+00
  0.79998E-02  0.94435E+02    0.80000E-02 -0.38224E-02 -0.41776E-02  0.00000E+00  0.00000E+00  0.00000E+00    0.94433E+02  0.00000E+00  0.00000E+00 -0.21646E+00  0.14171E+00  0.26039E+00
  0.89998E-02  0.95002E+02    0.90000E-02 -0.42995E-02 -0.47005E-02  0.00000E+00  0.00000E+00  0.00000E+00    0.94999E+02  0.00000E+00  0.00000E+00 -0.21714E+00  0.14304E+00  0.26131E+00
  0.99998E-02  0.95565E+02    0.10000E-01 -0.47766E-02 -0.52234E-02  0.00000E+00  0.00000E+00  0.00000E+00    0.95563E+02  0.00000E+00  0.00000E+00 -0.21779E+00  0.14439E+00  0.26221E+00
  0.11000E-01  0.96125E+02    0.11000E-01 -0.52537E-02 -0.57463E-02  0.00000E+00  0.00000E+00  0.00000E+00    0.96123E+02  0.00000E+00  0.00000E+00 -0.21838E+00  0.14576E+00  0.26309E+00
  0.12000E-01  0.96681E+02    0.12000E-01 -0.57307E-02 -0.62693E-02  0.00000E+00  0.00000E+00  0.00000E+00    0.96679E+02  0.00000E+00  0.00000E+00 -0.21894E+00  0.14715E+00  0.26396E+00
  0.13000E-01  0.97234E+02    0.13000E-01 -0.62077E-02 -0.67923E-02  0.00000E+00  0.00000E+00  0.00000E+00    0.97232E+02  0.00000E+00  0.00000E+00 -0.21945E+00  0.14857E+00  0.26481E+00
  0.14000E-01  0.97784E+02    0.14000E-01 -0.66847E-02 -0.73153E-02  0.00000E+00  0.00000E+00  0.00000E+00    0.97782E+02  0.00000E+00  0.00000E+00 -0.21993E+00  0.15001E+00  0.26565E+00
  0.15000E-01  0.98330E+02    0.15000E-01 -0.71616E-02 -0.78384E-02  0.00000E+00  0.00000E+00  0.00000E+00    0.98328E+02  0.00000E+00  0.00000E+00 -0.22036E+00  0.15147E+00  0.26647E+00
  0.16000E-01  0.98873E+02    0.16000E-01 -0.76386E-02 -0.83614E-02  0.00000E+00  0.00000E+00  0.00000E+00    0.98871E+02  0.00000E+00  0.00000E+00 -0.22075E+00  0.15296E+00  0.26728E+00
  0.17000E-01  0.99413E+02    0.17000E-01 -0.81155E-02 -0.88845E-02  0.00000E+00  0.00000E+00  0.00000E+00    0.99411E+02  0.00000E+00  0.00000E+00 -0.22110E+00  0.15447E+00  0.26808E+00
  0.18000E-01  0.99950E+02    0.18000E-01 -0.85924E-02 -0.94076E-02  0.00000E+00  0.00000E+00  0.00000E+00    0.99947E+02  0.00000E+00  0.00000E+00 -0.22142E+00  0.15600E+00  0.26886E+00
  0.19000E-01  0.10048E+03    0.19000E-01 -0.90692E-02 -0.99308E-02  0.00000E+00  0.00000E+00  0.00000E+00    0.10048E+03  0.00000E+00  0.00000E+00 -0.22169E+00  0.15755E+00  0.26964E+00
  0.20000E-01  0.10101E+03    0.20000E-01 -0.95461E-02 -0.10454E-01  0.00000E+00  0.00000E+00  0.00000E+00    0.10101E+03  0.00000E+00  0.00000E+00 -0.22192E+00  0.15912E+00  0.27041E+00
  0.21000E-01  0.10154E+03    0.21000E-01 -0.10023E-01 -0.10977E-01  0.00000E+00  0.00000E+00  0.00000E+00    0.10154E+03  0.00000E+00  0.00000E+00 -0.22211E+00  0.16072E+00  0.27116E+00
  0.22000E-01  0.10206E+03    0.22000E-01 -0.10500E-01 -0.11500E-01  0.00000E+00  0.00000E+00  0.00000E+00    0.10206E+03  0.00000E+00  0.00000E+00 -0.22227E+00  0.16233E+00  0.27191E+00
  0.22999E-01  0.10258E+03    0.23000E-01 -0.10976E-01 -0.12024E-01  0.00000E+00  0.00000E+00  0.00000E+00    0.10258E+03  0.00000E+00  0.00000E+00 -0.22238E+00  0.16397E+00  0.27265E+00
  0.23999E-01  0.10310E+03    0.24000E-01 -0.11453E-01 -0.12547E-01  0.00000E+00  0.00000E+00  0.00000E+00    0.10310E+03  0.00000E+00  0.00000E+00 -0.22246E+00  0.16563E+00  0.27338E+00
  0.24999E-01  0.10362E+03    0.25000E-01 -0.11930E-01 -0.13070E-01  0.00000E+00  0.00000E+00  0.00000E+00    0.10361E+03  0.00000E+00  0.00000E+00 -0.22250E+00  0.16730E+00  0.27410E+00
  0.25999E-01  0.10413E+03    0.26000E-01 -0.12407E-01 -0.13593E-01  0.00000E+00  0.00000E+00  0.00000E+00    0.10413E+03  0.00000E+00  0.00000E+00 -0.22250E+00  0.16901E+00  0.27481E+00
  0.26999E-01  0.10464E+03    0.27000E-01 -0.12883E-01 -0.14117E-01  0.00000E+00  0.00000E+00  0.00000E+00    0.10463E+03  0.00000E+00  0.00000E+00 -0.22247E+00  0.17073E+00  0.27551E+00
  0.27999E-01  0.10514E+03    0.28000E-01 -0.13360E-01 -0.14640E-01  0.00000E+00  0.00000E+00  0.00000E+00    0.10514E+03  0.00000E+00  0.00000E+00 -0.22240E+00  0.17247E+00  0.27621E+00
  0.28999E-01  0.10564E+03    0.29000E-01 -0.13837E-01 -0.15163E-01  0.00000E+00  0.00000E+00  0.00000E+00    0.10564E+03  0.00000E+00  0.00000E+00 -0.22229E+00  0.17423E+00  0.27690E+00
  0.29999E-01  0.10614E+03    0.30000E-01 -0.14313E-01 -0.15687E-01  0.00000E+00  0.00000E+00  0.00000E+00    0.10614E+03  0.00000E+00  0.00000E+00 -0.22215E+00  0.17601E+00  0.27758E+00
  0.30999E-01  0.10664E+03    0.31000E-01 -0.14790E-01 -0.16210E-01  0.00000E+00  0.00000E+00  0.00000E+00    0.10664E+03  0.00000E+00  0.00000E+00 -0.22198E+00  0.17781E+00  0.27825E+00
  0.31999E-01  0.10713E+03    0.32000E-01 -0.15266E-01 -0.16734E-01  0.00000E+00  0.00000E+00  0.00000E+00    0.10713E+03  0.00000E+00  0.00000E+00 -0.22177E+00  0.17963E+00  0.27892E+00
  0.32999E-01  0.10762E+03    0.33000E-01 -0.15743E-01 -0.17257E-01  0.00000E+00  0.00000E+00  0.00000E+00    0.10762E+03  0.00000E+00  0.00000E+00 -0.22153E+00  0.18147E+00  0.27958E+00
  0.33999E-01  0.10811E+03    0.34000E-01 -0.16219E-01 -0.17781E-01  0.00000E+00  0.00000E+00  0.00000E+00    0.10811E+03  0.00000E+00  0.00000E+00 -0.22125E+00  0.18333E+00  0.28023E+00
  0.34999E-01  0.10860E+03    0.35000E-01 -0.16696E-01 -0.18304E-01  0.00000E+00  0.00000E+00  0.00000E+00    0.10859E+03  0.00000E+00  0.00000E+00 -0.22094E+00  0.18521E+00  0.28088E+00
  0.35999E-01  0.10908E+03    0.36000E-01 -0.17172E-01 -0.18828E-01  0.00000E+00  0.00000E+00  0.00000E+00    0.10908E+03  0.00000E+00  0.00000E+00 -0.22059E+00  0.18711E+00  0.28152E+00
  0.36999E-01  0.10956E+03    0.37000E-01 -0.17649E-01 -0.19351E-01  0.00000E+00  0.00000E+00  0.00000E+00    0.10955E+03  0.00000E+00  0.00000E+00 -0.22022E+00  0.18903E+00  0.28216E+00
  0.37999E-01  0.11000E+03    0.38000E-01 -0.18125E-01 -0.19875E-01  0.00000E+00  0.00000E+00  0.00000E+00    0.10999E+03  0.00000E+00  0.00000E+00 -0.22283E+00  0.18947E+00  0.28278E+00
  0.38999E-01  0.11050E+03    0.39000E-01 -0.18602E-01 -0.20398E-01  0.00000E+00  0.00000E+00  0.00000E+00    0.11050E+03  0.00000E+00  0.00000E+00 -0.21956E+00  0.19278E+00  0.28338E+00
  0.39999E-01  0.11094E+03    0.40000E-01 -0.19078E-01 -0.20922E-01  0.00000E+00  0.00000E+00  0.00000E+00    0.11094E+03  0.00000E+00  0.00000E+00 -0.22194E+00  0.19335E+00  0.28403E+00
  0.40999E-01  0.11141E+03    0.41000E-01 -0.19554E-01 -0.21446E-01  0.00000E+00  0.00000E+00  0.00000E+00    0.11141E+03  0.00000E+00  0.00000E+00 -0.22152E+00  0.19524E+00  0.28465E+00
  0.41999E-01  0.11188E+03    0.42000E-01 -0.20031E-01 -0.21969E-01  0.00000E+00  0.00000E+00  0.00000E+00    0.11187E+03  0.00000E+00  0.00000E+00 -0.22099E+00  0.19722E+00  0.28527E+00
  0.42999E-01  0.11234E+03    0.43000E-01 -0.20507E-01 -0.22493E-01  0.00000E+00  0.00000E+00  0.00000E+00    0.11234E+03  0.00000E+00  0.00000E+00 -0.22043E+00  0.19922E+00  0.28588E+00
  0.43999E-01  0.11280E+03    0.44000E-01 -0.20983E-01 -0.23017E-01  0.00000E+00  0.00000E+00  0.00000E+00    0.11280E+03  0.00000E+00  0.00000E+00 -0.21985E+00  0.20125E+00  0.28649E+00
  0.44999E-01  0.11326E+03    0.45000E-01 -0.21459E-01 -0.23541E-01  0.00000E+00  0.00000E+00  0.00000E+00    0.11326E+03  0.00000E+00  0.00000E+00 -0.21922E+00  0.20328E+00  0.28710E+00
  0.45999E-01  0.11371E+03    0.46000E-01 -0.21936E-01 -0.24064E-01  0.00000E+00  0.00000E+00  0.00000E+00    0.11371E+03  0.00000E+00  0.00000E+00 -0.21857E+00  0.20534E+00  0.28770E+00
  0.46999E-01  0.11417E+03    0.47000E-01 -0.22412E-01 -0.24588E-01  0.00000E+00  0.00000E+00  0.00000E+00    0.11416E+03  0.00000E+00  0.00000E+00 -0.21789E+00  0.20741E+00  0.28830E+00
  0.47999E-01  0.11464E+03    0.48000E-01 -0.22888E-01 -0.25112E-01  0.00000E+00  0.00000E+00  0.00000E+00    0.11463E+03  0.00000E+00  0.00000E+00 -0.21429E+00  0.21102E+00  0.28879E+00
  0.48999E-01  0.11506E+03    0.49000E-01 -0.23364E-01 -0.25636E-01  0.00000E+00  0.00000E+00  0.00000E+00    0.11506E+03  0.00000E+00  0.00000E+00 -0.21639E+00  0.21168E+00  0.28949E+00
  0.49999E-01  0.11553E+03    0.50000E-01 -0.23840E-01 -0.26160E-01  0.00000E+00  0.00000E+00  0.00000E+00    0.11553E+03  0.00000E+00  0.00000E+00 -0.21280E+00  0.21528E+00  0.28997E+00
  0.50999E-01  0.11595E+03    0.51000E-01 -0.24316E-01 -0.26684E-01  0.00000E+00  0.00000E+00  0.00000E+00    0.11595E+03  0.00000E+00  0.00000E+00 -0.21483E+00  0.21594E+00  0.29067E+00
  0.51999E-01  0.11641E+03    0.52000E-01 -0.24792E-01 -0.27208E-01  0.00000E+00  0.00000E+00  0.00000E+00    0.11641E+03  0.00000E+00  0.00000E+00 -0.21119E+00  0.21961E+00  0.29113E+00
  0.52999E-01  0.11683E+03    0.53000E-01 -0.25268E-01 -0.27732E-01  0.00000E+00  0.00000E+00  0.00000E+00    0.11683E+03  0.00000E+00  0.00000E+00 -0.21317E+00  0.22027E+00  0.29185E+00
  0.53999E-01  0.11725E+03    0.54000E-01 -0.25744E-01 -0.28256E-01  0.00000E+00  0.00000E+00  0.00000E+00    0.11725E+03  0.00000E+00  0.00000E+00 -0.21270E+00  0.22223E+00  0.29240E+00
  0.54999E-01  0.11770E+03    0.55000E-01 -0.26220E-01 -0.28780E-01  0.00000E+00  0.00000E+00  0.00000E+00    0.11769E+03  0.00000E+00  0.00000E+00 -0.21148E+00  0.22457E+00  0.29300E+00
  0.55999E-01  0.11811E+03    0.56000E-01 -0.26696E-01 -0.29304E-01  0.00000E+00  0.00000E+00  0.00000E+00    0.11811E+03  0.00000E+00  0.00000E+00 -0.21088E+00  0.22664E+00  0.29356E+00
  0.56999E-01  0.11856E+03    0.57000E-01 -0.27172E-01 -0.29828E-01  0.00000E+00  0.00000E+00  0.00000E+00    0.11855E+03  0.00000E+00  0.00000E+00 -0.20960E+00  0.22901E+00  0.29416E+00
  0.57999E-01  0.11897E+03    0.58000E-01 -0.27648E-01 -0.30352E-01  0.00000E+00  0.00000E+00  0.00000E+00    0.11897E+03  0.00000E+00  0.00000E+00 -0.20895E+00  0.23111E+00  0.29472E+00
  0.58999E-01  0.11940E+03    0.59000E-01 -0.28124E-01 -0.30876E-01  0.00000E+00  0.00000E+00  0.00000E+00    0.11940E+03  0.00000E+00  0.00000E+00 -0.20762E+00  0.23352E+00  0.29531E+00
  0.59999E-01  0.11981E+03    0.60000E-01 -0.28600E-01 -0.31400E-01  0.00000E+00  0.00000E+00  0.00000E+00    0.11981E+03  0.00000E+00  0.00000E+00 -0.20692E+00  0.23565E+00  0.29588E+00
  0.60999E-01  0.12024E+03    0.61000E-01 -0.29075E-01 -0.31925E-01  0.00000E+00  0.00000E+00  0.00000E+00    0.12024E+03  0.00000E+00  0.00000E+00 -0.20553E+00  0.23809E+00  0.29646E+00
  0.61999E-01  0.12065E+03    0.62000E-01 -0.29551E-01 -0.32449E-01  0.00000E+00  0.00000E+00  0.00000E+00    0.12064E+03  0.00000E+00  0.00000E+00 -0.20479E+00  0.24024E+00  0.29702E+00
  0.62999E-01  0.12106E+03    0.63000E-01 -0.30027E-01 -0.32973E-01  0.00000E+00  0.00000E+00  0.00000E+00    0.12106E+03  0.00000E+00  0.00000E+00 -0.20375E+00  0.24254E+00  0.29760E+00
  0.63999E-01  0.12147E+03    0.64000E-01 -0.30503E-01 -0.33497E-01  0.00000E+00  0.00000E+00  0.00000E+00    0.12147E+03  0.00000E+00  0.00000E+00 -0.20263E+00  0.24487E+00  0.29817E+00
  0.64999E-01  0.12188E+03    0.65000E-01 -0.30978E-01 -0.34022E-01  0.00000E+00  0.00000E+00  0.00000E+00    0.12188E+03  0.00000E+00  0.00000E+00 -0.20149E+00  0.24723E+00  0.29875E+00
  0.65999E-01  0.12229E+03    0.66000E-01 -0.31454E-01 -0.34546E-01  0.00000E+00  0.00000E+00  0.00000E+00    0.12229E+03  0.00000E+00  0.00000E+00 -0.20031E+00  0.24959E+00  0.29933E+00
  0.66999E-01  0.12269E+03    0.67000E-01 -0.31930E-01 -0.35070E-01  0.00000E+00  0.00000E+00  0.00000E+00    0.12269E+03  0.00000E+00  0.00000E+00 -0.19911E+00  0.25197E+00  0.29991E+00
  0.67999E-01  0.12310E+03    0.68000E-01 -0.32405E-01 -0.35595E-01  0.00000E+00  0.00000E+00  0.00000E+00    0.12309E+03  0.00000E+00  0.00000E+00 -0.19789E+00  0.25437E+00  0.30049E+00
  0.68999E-01  0.12350E+03    0.69000E-01 -0.32881E-01 -0.36119E-01  0.00000E+00  0.00000E+00  0.00000E+00    0.12349E+03  0.00000E+00  0.00000E+00 -0.19665E+00  0.25678E+00  0.30107E+00
  0.69999E-01  0.12389E+03    0.70000E-01 -0.33357E-01 -0.36643E-01  0.00000E+00  0.00000E+00  0.00000E+00    0.12389E+03  0.00000E+00  0.00000E+00 -0.19539E+00  0.25920E+00  0.30166E+00
  0.70999E-01  0.12429E+03    0.71000E-01 -0.33832E-01 -0.37168E-01  0.00000E+00  0.00000E+00  0.00000E+00    0.12429E+03  0.00000E+00  0.00000E+00 -0.19410E+00  0.26164E+00  0.30224E+00
  0.71999E-01  0.12469E+03    0.72000E-01 -0.34308E-01 -0.37692E-01  0.00000E+00  0.00000E+00  0.00000E+00    0.12468E+03  0.00000E+00  0.00000E+00 -0.19279E+00  0.26410E+00  0.30283E+00
  0.72998E-01  0.12508E+03    0.73000E-01 -0.34783E-01 -0.38217E-01  0.00000E+00  0.00000E+00  0.00000E+00    0.12508E+03  0.00000E+00  0.00000E+00 -0.19146E+00  0.26657E+00  0.30343E+00
  0.73998E-01  0.12547E+03    0.74000E-01 -0.35259E-01 -0.38741E-01  0.00000E+00  0.00000E+00  0.00000E+00    0.12547E+03  0.00000E+00  0.00000E+00 -0.19011E+00  0.26905E+00  0.30402E+00
  0.74998E-01  0.12586E+03    0.75000E-01 -0.35734E-01 -0.39266E-01  0.00000E+00  0.00000E+00  0.00000E+00    0.12585E+03  0.00000E+00  0.00000E+00 -0.18874E+00  0.27155E+00  0.30462E+00
  0.75998E-01  0.12624E+03    0.76000E-01 -0.36209E-01 -0.39791E-01  0.00000E+00  0.00000E+00  0.00000E+00    0.12624E+03  0.00000E+00  0.00000E+00 -0.18734E+00  0.27407E+00  0.30523E+00
  0.76998E-01  0.12663E+03    0.77000E-01 -0.36685E-01 -0.40315E-01  0.00000E+00  0.00000E+00  0.00000E+00    0.12662E+03  0.00000E+00  0.00000E+00 -0.18593E+00  0.27660E+00  0.30584E+00
  0.77998E-01  0.12701E+03    0.78000E-01 -0.37160E-01 -0.40840E-01  0.00000E+00  0.00000E+00  0.00000E+00    0.12701E+03  0.00000E+00  0.00000E+00 -0.18449E+00  0.27914E+00  0.30645E+00
  0.78998E-01  0.12739E+03    0.79000E-01 -0.37635E-01 -0.41365E-01  0.00000E+00  0.00000E+00  0.00000E+00    0.12739E+03  0.00000E+00  0.00000E+00 -0.17622E+00  0.28481E+00  0.30711E+00
  0.79998E-01  0.12774E+03    0.80000E-01 -0.38111E-01 -0.41889E-01  0.00000E+00  0.00000E+00  0.00000E+00    0.12774E+03  0.00000E+00  0.00000E+00 -0.17652E+00  0.28703E+00  0.30782E+00
  0.80998E-01  0.12811E+03    0.81000E-01 -0.38586E-01 -0.42414E-01  0.00000E+00  0.00000E+00  0.00000E+00    0.12811E+03  0.00000E+00  0.00000E+00 -0.17475E+00  0.28972E+00  0.30847E+00
  0.81998E-01  0.12849E+03    0.82000E-01 -0.39061E-01 -0.42939E-01  0.00000E+00  0.00000E+00  0.00000E+00    0.12848E+03  0.00000E+00  0.00000E+00 -0.17323E+00  0.29235E+00  0.30912E+00
  0.82998E-01  0.12886E+03    0.83000E-01 -0.39537E-01 -0.43463E-01  0.00000E+00  0.00000E+00  0.00000E+00    0.12886E+03  0.00000E+00  0.00000E+00 -0.17169E+00  0.29500E+00  0.30977E+00
  0.83998E-01  0.12928E+03    0.84000E-01 -0.40012E-01 -0.43988E-01  0.00000E+00  0.00000E+00  0.00000E+00    0.12928E+03  0.00000E+00  0.00000E+00 -0.16859E+00  0.29829E+00  0.31035E+00
  0.84998E-01  0.12965E+03    0.85000E-01 -0.40487E-01 -0.44513E-01  0.00000E+00  0.00000E+00  0.00000E+00    0.12965E+03  0.00000E+00  0.00000E+00 -0.16742E+00  0.30088E+00  0.31098E+00
  0.85998E-01  0.13002E+03    0.86000E-01 -0.40962E-01 -0.45038E-01  0.00000E+00  0.00000E+00  0.00000E+00    0.13002E+03  0.00000E+00  0.00000E+00 -0.16583E+00  0.30358E+00  0.31165E+00
  0.86998E-01  0.13038E+03    0.87000E-01 -0.41437E-01 -0.45563E-01  0.00000E+00  0.00000E+00  0.00000E+00    0.13038E+03  0.00000E+00  0.00000E+00 -0.16421E+00  0.30630E+00  0.31232E+00
  0.87998E-01  0.13075E+03    0.88000E-01 -0.41912E-01 -0.46088E-01  0.00000E+00  0.00000E+00  0.00000E+00    0.13074E+03  0.00000E+00  0.00000E+00 -0.16258E+00  0.30904E+00  0.31301E+00
  0.88998E-01  0.13111E+03    0.89000E-01 -0.42387E-01 -0.46613E-01  0.00000E+00  0.00000E+00  0.00000E+00    0.13110E+03  0.00000E+00  0.00000E+00 -0.16093E+00  0.31179E+00  0.31371E+00
  0.89998E-01  0.13147E+03    0.90000E-01 -0.42862E-01 -0.47138E-01  0.00000E+00  0.00000E+00  0.00000E+00    0.13146E+03  0.00000E+00  0.00000E+00 -0.15927E+00  0.31456E+00  0.31441E+00
  0.90998E-01  0.13182E+03    0.91000E-01 -0.43337E-01 -0.47663E-01  0.00000E+00  0.00000E+00  0.00000E+00    0.13182E+03  0.00000E+00  0.00000E+00 -0.15758E+00  0.31735E+00  0.31513E+00
  0.91998E-01  0.13218E+03    0.92000E-01 -0.43812E-01 -0.48188E-01  0.00000E+00  0.00000E+00  0.00000E+00    0.13218E+03  0.00000E+00  0.00000E+00 -0.15588E+00  0.32015E+00  0.31585E+00
  0.92998E-01  0.13253E+03    0.93000E-01 -0.44287E-01 -0.48713E-01  0.00000E+00  0.00000E+00  0.00000E+00    0.13253E+03  0.00000E+00  0.00000E+00 -0.15417E+00  0.32298E+00  0.31659E+00
  0.93998E-01  0.13288E+03    0.94000E-01 -0.44762E-01 -0.49238E-01  0.00000E+00  0.00000E+00  0.00000E+00    0.13288E+03  0.00000E+00  0.00000E+00 -0.15243E+00  0.32582E+00  0.31734E+00
  0.94998E-01  0.13323E+03    0.95000E-01 -0.45237E-01 -0.49763E-01  0.00000E+00  0.00000E+00  0.00000E+00    0.13323E+03  0.00000E+00  0.00000E+00 -0.15069E+00  0.32867E+00  0.31810E+00
  0.95998E-01  0.13358E+03    0.96000E-01 -0.45712E-01 -0.50288E-01  0.00000E+00  0.00000E+00  0.00000E+00    0.13358E+03  0.00000E+00  0.00000E+00 -0.14892E+00  0.33155E+00  0.31887E+00
  0.96998E-01  0.13393E+03    0.97000E-01 -0.46187E-01 -0.50813E-01  0.00000E+00  0.00000E+00  0.00000E+00    0.13392E+03  0.00000E+00  0.00000E+00 -0.14714E+00  0.33445E+00  0.31965E+00
  0.97998E-01  0.13427E+03    0.98000E-01 -0.46661E-01 -0.51339E-01  0.00000E+00  0.00000E+00  0.00000E+00    0.13427E+03  0.00000E+00  0.00000E+00 -0.14534E+00  0.33736E+00  0.32045E+00
  0.98998E-01  0.13461E+03    0.99000E-01 -0.47136E-01 -0.51864E-01  0.00000E+00  0.00000E+00  0.00000E+00    0.13461E+03  0.00000E+00  0.00000E+00 -0.14353E+00  0.34029E+00  0.32126E+00
  0.99998E-01  0.13496E+03    0.10000E+00 -0.47611E-01 -0.52389E-01  0.00000E+00  0.00000E+00  0.00000E+00    0.13495E+03  0.00000E+00  0.00000E+00 -0.14171E+00  0.34324E+00  0.32208E+00
