          Evm          Svm            E11          E22          E33          E23          E13          E12         SCAU11       SCAU22       SCAU33       SCAU23       SCAU13       SCAU12      TEMP
  0.00000E+00  0.83545E+02    0.00000E+00  0.00000E+00  0.00000E+00  0.00000E+00  0.00000E+00  0.00000E+00    0.83543E+02  0.00000E+00  0.00000E+00 -0.19376E+00  0.12013E+00  0.23084E+00
  0.99998E-03  0.84108E+02    0.10000E-02 -0.47967E-03 -0.52033E-03  0.00000E+00  0.00000E+00  0.00000E+00    0.84106E+02  0.00000E+00  0.00000E+00 -0.19820E+00  0.12305E+00  0.23396E+00
  0.20000E-02  0.84638E+02    0.20000E-02 -0.95784E-03 -0.10422E-02  0.00000E+00  0.00000E+00  0.00000E+00    0.84636E+02  0.00000E+00  0.00000E+00 -0.19856E+00  0.12408E+00  0.23604E+00
  0.29999E-02  0.85225E+02    0.30000E-02 -0.14356E-02 -0.15644E-02  0.00000E+00  0.00000E+00  0.00000E+00    0.85223E+02  0.00000E+00  0.00000E+00 -0.19967E+00  0.12521E+00  0.23750E+00
  0.39999E-02  0.85809E+02    0.40000E-02 -0.19132E-02 -0.20868E-02  0.00000E+00  0.00000E+00  0.00000E+00    0.85808E+02  0.00000E+00  0.00000E+00 -0.20063E+00  0.12636E+00  0.23871E+00
  0.49999E-02  0.86390E+02    0.50000E-02 -0.23906E-02 -0.26094E-02  0.00000E+00  0.00000E+00  0.00000E+00    0.86388E+02  0.00000E+00  0.00000E+00 -0.20156E+00  0.12754E+00  0.23982E+00
  0.59999E-02  0.86957E+02    0.60000E-02 -0.28678E-02 -0.31322E-02  0.00000E+00  0.00000E+00  0.00000E+00    0.86955E+02  0.00000E+00  0.00000E+00 -0.20050E+00  0.12956E+00  0.24090E+00
  0.69998E-02  0.87538E+02    0.70000E-02 -0.33451E-02 -0.36549E-02  0.00000E+00  0.00000E+00  0.00000E+00    0.87536E+02  0.00000E+00  0.00000E+00 -0.20134E+00  0.13093E+00  0.24193E+00
  0.79998E-02  0.88109E+02    0.80000E-02 -0.38222E-02 -0.41778E-02  0.00000E+00  0.00000E+00  0.00000E+00    0.88107E+02  0.00000E+00  0.00000E+00 -0.20213E+00  0.13220E+00  0.24290E+00
  0.89998E-02  0.88675E+02    0.90000E-02 -0.42993E-02 -0.47007E-02  0.00000E+00  0.00000E+00  0.00000E+00    0.88673E+02  0.00000E+00  0.00000E+00 -0.20287E+00  0.13349E+00  0.24385E+00
  0.99998E-02  0.89239E+02    0.10000E-01 -0.47764E-02 -0.52236E-02  0.00000E+00  0.00000E+00  0.00000E+00    0.89237E+02  0.00000E+00  0.00000E+00 -0.20357E+00  0.13479E+00  0.24479E+00
  0.11000E-01  0.89798E+02    0.11000E-01 -0.52535E-02 -0.57465E-02  0.00000E+00  0.00000E+00  0.00000E+00    0.89796E+02  0.00000E+00  0.00000E+00 -0.20422E+00  0.13612E+00  0.24570E+00
  0.12000E-01  0.90354E+02    0.12000E-01 -0.57305E-02 -0.62695E-02  0.00000E+00  0.00000E+00  0.00000E+00    0.90352E+02  0.00000E+00  0.00000E+00 -0.20484E+00  0.13747E+00  0.24660E+00
  0.13000E-01  0.90907E+02    0.13000E-01 -0.62075E-02 -0.67925E-02  0.00000E+00  0.00000E+00  0.00000E+00    0.90905E+02  0.00000E+00  0.00000E+00 -0.20541E+00  0.13885E+00  0.24748E+00
  0.14000E-01  0.91457E+02    0.14000E-01 -0.66845E-02 -0.73155E-02  0.00000E+00  0.00000E+00  0.00000E+00    0.91455E+02  0.00000E+00  0.00000E+00 -0.20594E+00  0.14024E+00  0.24835E+00
  0.15000E-01  0.92003E+02    0.15000E-01 -0.71614E-02 -0.78386E-02  0.00000E+00  0.00000E+00  0.00000E+00    0.92001E+02  0.00000E+00  0.00000E+00 -0.20643E+00  0.14166E+00  0.24920E+00
  0.16000E-01  0.92546E+02    0.16000E-01 -0.76384E-02 -0.83616E-02  0.00000E+00  0.00000E+00  0.00000E+00    0.92544E+02  0.00000E+00  0.00000E+00 -0.20688E+00  0.14309E+00  0.25005E+00
  0.17000E-01  0.93085E+02    0.17000E-01 -0.81153E-02 -0.88847E-02  0.00000E+00  0.00000E+00  0.00000E+00    0.93083E+02  0.00000E+00  0.00000E+00 -0.20730E+00  0.14455E+00  0.25089E+00
  0.18000E-01  0.93622E+02    0.18000E-01 -0.85922E-02 -0.94078E-02  0.00000E+00  0.00000E+00  0.00000E+00    0.93620E+02  0.00000E+00  0.00000E+00 -0.20767E+00  0.14603E+00  0.25171E+00
  0.19000E-01  0.94155E+02    0.19000E-01 -0.90690E-02 -0.99310E-02  0.00000E+00  0.00000E+00  0.00000E+00    0.94153E+02  0.00000E+00  0.00000E+00 -0.20800E+00  0.14753E+00  0.25252E+00
  0.20000E-01  0.94684E+02    0.20000E-01 -0.95459E-02 -0.10454E-01  0.00000E+00  0.00000E+00  0.00000E+00    0.94682E+02  0.00000E+00  0.00000E+00 -0.20830E+00  0.14906E+00  0.25332E+00
  0.21000E-01  0.95211E+02    0.21000E-01 -0.10023E-01 -0.10977E-01  0.00000E+00  0.00000E+00  0.00000E+00    0.95209E+02  0.00000E+00  0.00000E+00 -0.20856E+00  0.15060E+00  0.25411E+00
  0.22000E-01  0.95735E+02    0.22000E-01 -0.10500E-01 -0.11500E-01  0.00000E+00  0.00000E+00  0.00000E+00    0.95733E+02  0.00000E+00  0.00000E+00 -0.20878E+00  0.15216E+00  0.25489E+00
  0.22999E-01  0.96255E+02    0.23000E-01 -0.10976E-01 -0.12024E-01  0.00000E+00  0.00000E+00  0.00000E+00    0.96253E+02  0.00000E+00  0.00000E+00 -0.20896E+00  0.15375E+00  0.25566E+00
  0.23999E-01  0.96772E+02    0.24000E-01 -0.11453E-01 -0.12547E-01  0.00000E+00  0.00000E+00  0.00000E+00    0.96770E+02  0.00000E+00  0.00000E+00 -0.20911E+00  0.15535E+00  0.25643E+00
  0.24999E-01  0.97286E+02    0.25000E-01 -0.11930E-01 -0.13070E-01  0.00000E+00  0.00000E+00  0.00000E+00    0.97284E+02  0.00000E+00  0.00000E+00 -0.20922E+00  0.15697E+00  0.25718E+00
  0.25999E-01  0.97798E+02    0.26000E-01 -0.12406E-01 -0.13594E-01  0.00000E+00  0.00000E+00  0.00000E+00    0.97795E+02  0.00000E+00  0.00000E+00 -0.20929E+00  0.15862E+00  0.25792E+00
  0.26999E-01  0.98306E+02    0.27000E-01 -0.12883E-01 -0.14117E-01  0.00000E+00  0.00000E+00  0.00000E+00    0.98304E+02  0.00000E+00  0.00000E+00 -0.20933E+00  0.16029E+00  0.25866E+00
  0.27999E-01  0.98811E+02    0.28000E-01 -0.13360E-01 -0.14640E-01  0.00000E+00  0.00000E+00  0.00000E+00    0.98809E+02  0.00000E+00  0.00000E+00 -0.20933E+00  0.16197E+00  0.25939E+00
  0.28999E-01  0.99313E+02    0.29000E-01 -0.13836E-01 -0.15164E-01  0.00000E+00  0.00000E+00  0.00000E+00    0.99311E+02  0.00000E+00  0.00000E+00 -0.20929E+00  0.16367E+00  0.26011E+00
  0.29999E-01  0.99812E+02    0.30000E-01 -0.14313E-01 -0.15687E-01  0.00000E+00  0.00000E+00  0.00000E+00    0.99810E+02  0.00000E+00  0.00000E+00 -0.20923E+00  0.16540E+00  0.26083E+00
  0.30999E-01  0.10031E+03    0.31000E-01 -0.14790E-01 -0.16210E-01  0.00000E+00  0.00000E+00  0.00000E+00    0.10031E+03  0.00000E+00  0.00000E+00 -0.20912E+00  0.16714E+00  0.26153E+00
  0.31999E-01  0.10080E+03    0.32000E-01 -0.15266E-01 -0.16734E-01  0.00000E+00  0.00000E+00  0.00000E+00    0.10080E+03  0.00000E+00  0.00000E+00 -0.20898E+00  0.16890E+00  0.26224E+00
  0.32999E-01  0.10129E+03    0.33000E-01 -0.15743E-01 -0.17257E-01  0.00000E+00  0.00000E+00  0.00000E+00    0.10129E+03  0.00000E+00  0.00000E+00 -0.20881E+00  0.17068E+00  0.26293E+00
  0.33999E-01  0.10178E+03    0.34000E-01 -0.16219E-01 -0.17781E-01  0.00000E+00  0.00000E+00  0.00000E+00    0.10178E+03  0.00000E+00  0.00000E+00 -0.20861E+00  0.17248E+00  0.26362E+00
  0.34999E-01  0.10226E+03    0.35000E-01 -0.16696E-01 -0.18304E-01  0.00000E+00  0.00000E+00  0.00000E+00    0.10226E+03  0.00000E+00  0.00000E+00 -0.20837E+00  0.17430E+00  0.26430E+00
  0.35999E-01  0.10275E+03    0.36000E-01 -0.17172E-01 -0.18828E-01  0.00000E+00  0.00000E+00  0.00000E+00    0.10274E+03  0.00000E+00  0.00000E+00 -0.20810E+00  0.17613E+00  0.26497E+00
  0.36999E-01  0.10322E+03    0.37000E-01 -0.17649E-01 -0.19351E-01  0.00000E+00  0.00000E+00  0.00000E+00    0.10322E+03  0.00000E+00  0.00000E+00 -0.20780E+00  0.17799E+00  0.26564E+00
  0.37999E-01  0.10370E+03    0.38000E-01 -0.18125E-01 -0.19875E-01  0.00000E+00  0.00000E+00  0.00000E+00    0.10370E+03  0.00000E+00  0.00000E+00 -0.20747E+00  0.17986E+00  0.26630E+00
  0.38999E-01  0.10417E+03    0.39000E-01 -0.18601E-01 -0.20399E-01  0.00000E+00  0.00000E+00  0.00000E+00    0.10417E+03  0.00000E+00  0.00000E+00 -0.20711E+00  0.18175E+00  0.26696E+00
  0.39999E-01  0.10464E+03    0.40000E-01 -0.19078E-01 -0.20922E-01  0.00000E+00  0.00000E+00  0.00000E+00    0.10464E+03  0.00000E+00  0.00000E+00 -0.20671E+00  0.18365E+00  0.26761E+00
  0.40999E-01  0.10511E+03    0.41000E-01 -0.19554E-01 -0.21446E-01  0.00000E+00  0.00000E+00  0.00000E+00    0.10511E+03  0.00000E+00  0.00000E+00 -0.20629E+00  0.18558E+00  0.26826E+00
  0.41999E-01  0.10558E+03    0.42000E-01 -0.20030E-01 -0.21970E-01  0.00000E+00  0.00000E+00  0.00000E+00    0.10558E+03  0.00000E+00  0.00000E+00 -0.20583E+00  0.18752E+00  0.26890E+00
  0.42999E-01  0.10604E+03    0.43000E-01 -0.20507E-01 -0.22493E-01  0.00000E+00  0.00000E+00  0.00000E+00    0.10604E+03  0.00000E+00  0.00000E+00 -0.20535E+00  0.18948E+00  0.26953E+00
  0.43999E-01  0.10647E+03    0.44000E-01 -0.20983E-01 -0.23017E-01  0.00000E+00  0.00000E+00  0.00000E+00    0.10646E+03  0.00000E+00  0.00000E+00 -0.20786E+00  0.18988E+00  0.27018E+00
  0.44999E-01  0.10695E+03    0.45000E-01 -0.21459E-01 -0.23541E-01  0.00000E+00  0.00000E+00  0.00000E+00    0.10695E+03  0.00000E+00  0.00000E+00 -0.20449E+00  0.19330E+00  0.27076E+00
  0.45999E-01  0.10738E+03    0.46000E-01 -0.21935E-01 -0.24065E-01  0.00000E+00  0.00000E+00  0.00000E+00    0.10738E+03  0.00000E+00  0.00000E+00 -0.20677E+00  0.19383E+00  0.27144E+00
  0.46999E-01  0.10783E+03    0.47000E-01 -0.22412E-01 -0.24588E-01  0.00000E+00  0.00000E+00  0.00000E+00    0.10783E+03  0.00000E+00  0.00000E+00 -0.20624E+00  0.19575E+00  0.27206E+00
  0.47999E-01  0.10828E+03    0.48000E-01 -0.22888E-01 -0.25112E-01  0.00000E+00  0.00000E+00  0.00000E+00    0.10828E+03  0.00000E+00  0.00000E+00 -0.20562E+00  0.19777E+00  0.27269E+00
  0.48999E-01  0.10873E+03    0.49000E-01 -0.23364E-01 -0.25636E-01  0.00000E+00  0.00000E+00  0.00000E+00    0.10873E+03  0.00000E+00  0.00000E+00 -0.20497E+00  0.19981E+00  0.27331E+00
  0.49999E-01  0.10917E+03    0.50000E-01 -0.23840E-01 -0.26160E-01  0.00000E+00  0.00000E+00  0.00000E+00    0.10917E+03  0.00000E+00  0.00000E+00 -0.20429E+00  0.20186E+00  0.27392E+00
  0.50999E-01  0.10962E+03    0.51000E-01 -0.24316E-01 -0.26684E-01  0.00000E+00  0.00000E+00  0.00000E+00    0.10961E+03  0.00000E+00  0.00000E+00 -0.20358E+00  0.20392E+00  0.27454E+00
  0.51999E-01  0.11006E+03    0.52000E-01 -0.24792E-01 -0.27208E-01  0.00000E+00  0.00000E+00  0.00000E+00    0.11005E+03  0.00000E+00  0.00000E+00 -0.20284E+00  0.20600E+00  0.27515E+00
  0.52999E-01  0.11049E+03    0.53000E-01 -0.25268E-01 -0.27732E-01  0.00000E+00  0.00000E+00  0.00000E+00    0.11049E+03  0.00000E+00  0.00000E+00 -0.20208E+00  0.20810E+00  0.27576E+00
  0.53999E-01  0.11093E+03    0.54000E-01 -0.25744E-01 -0.28256E-01  0.00000E+00  0.00000E+00  0.00000E+00    0.11093E+03  0.00000E+00  0.00000E+00 -0.20129E+00  0.21021E+00  0.27637E+00
  0.54999E-01  0.11138E+03    0.55000E-01 -0.26220E-01 -0.28780E-01  0.00000E+00  0.00000E+00  0.00000E+00    0.11138E+03  0.00000E+00  0.00000E+00 -0.19760E+00  0.21395E+00  0.27684E+00
  0.55999E-01  0.11179E+03    0.56000E-01 -0.26696E-01 -0.29304E-01  0.00000E+00  0.00000E+00  0.00000E+00    0.11179E+03  0.00000E+00  0.00000E+00 -0.19959E+00  0.21456E+00  0.27758E+00
  0.56999E-01  0.11223E+03    0.57000E-01 -0.27172E-01 -0.29828E-01  0.00000E+00  0.00000E+00  0.00000E+00    0.11223E+03  0.00000E+00  0.00000E+00 -0.19590E+00  0.21828E+00  0.27804E+00
  0.57999E-01  0.11264E+03    0.58000E-01 -0.27648E-01 -0.30352E-01  0.00000E+00  0.00000E+00  0.00000E+00    0.11264E+03  0.00000E+00  0.00000E+00 -0.19782E+00  0.21889E+00  0.27878E+00
  0.58999E-01  0.11305E+03    0.59000E-01 -0.28124E-01 -0.30876E-01  0.00000E+00  0.00000E+00  0.00000E+00    0.11305E+03  0.00000E+00  0.00000E+00 -0.19731E+00  0.22084E+00  0.27936E+00
  0.59999E-01  0.11349E+03    0.60000E-01 -0.28600E-01 -0.31400E-01  0.00000E+00  0.00000E+00  0.00000E+00    0.11348E+03  0.00000E+00  0.00000E+00 -0.19604E+00  0.22319E+00  0.27998E+00
  0.60999E-01  0.11389E+03    0.61000E-01 -0.29075E-01 -0.31925E-01  0.00000E+00  0.00000E+00  0.00000E+00    0.11389E+03  0.00000E+00  0.00000E+00 -0.19540E+00  0.22526E+00  0.28056E+00
  0.61999E-01  0.11432E+03    0.62000E-01 -0.29551E-01 -0.32449E-01  0.00000E+00  0.00000E+00  0.00000E+00    0.11432E+03  0.00000E+00  0.00000E+00 -0.19408E+00  0.22764E+00  0.28117E+00
  0.62999E-01  0.11472E+03    0.63000E-01 -0.30027E-01 -0.32973E-01  0.00000E+00  0.00000E+00  0.00000E+00    0.11472E+03  0.00000E+00  0.00000E+00 -0.19340E+00  0.22973E+00  0.28176E+00
  0.63999E-01  0.11514E+03    0.64000E-01 -0.30503E-01 -0.33497E-01  0.00000E+00  0.00000E+00  0.00000E+00    0.11514E+03  0.00000E+00  0.00000E+00 -0.19203E+00  0.23214E+00  0.28236E+00
  0.64999E-01  0.11554E+03    0.65000E-01 -0.30978E-01 -0.34022E-01  0.00000E+00  0.00000E+00  0.00000E+00    0.11554E+03  0.00000E+00  0.00000E+00 -0.19130E+00  0.23426E+00  0.28295E+00
  0.65999E-01  0.11596E+03    0.66000E-01 -0.31454E-01 -0.34546E-01  0.00000E+00  0.00000E+00  0.00000E+00    0.11596E+03  0.00000E+00  0.00000E+00 -0.18989E+00  0.23671E+00  0.28356E+00
  0.66999E-01  0.11635E+03    0.67000E-01 -0.31930E-01 -0.35070E-01  0.00000E+00  0.00000E+00  0.00000E+00    0.11635E+03  0.00000E+00  0.00000E+00 -0.18911E+00  0.23885E+00  0.28415E+00
  0.67999E-01  0.11677E+03    0.68000E-01 -0.32405E-01 -0.35595E-01  0.00000E+00  0.00000E+00  0.00000E+00    0.11677E+03  0.00000E+00  0.00000E+00 -0.18765E+00  0.24132E+00  0.28476E+00
  0.68999E-01  0.11716E+03    0.69000E-01 -0.32881E-01 -0.36119E-01  0.00000E+00  0.00000E+00  0.00000E+00    0.11715E+03  0.00000E+00  0.00000E+00 -0.18683E+00  0.24350E+00  0.28536E+00
  0.69999E-01  0.11755E+03    0.70000E-01 -0.33357E-01 -0.36643E-01  0.00000E+00  0.00000E+00  0.00000E+00    0.11755E+03  0.00000E+00  0.00000E+00 -0.18571E+00  0.24582E+00  0.28596E+00
  0.70999E-01  0.11795E+03    0.71000E-01 -0.33832E-01 -0.37168E-01  0.00000E+00  0.00000E+00  0.00000E+00    0.11795E+03  0.00000E+00  0.00000E+00 -0.18453E+00  0.24817E+00  0.28657E+00
  0.71999E-01  0.11834E+03    0.72000E-01 -0.34308E-01 -0.37692E-01  0.00000E+00  0.00000E+00  0.00000E+00    0.11834E+03  0.00000E+00  0.00000E+00 -0.18331E+00  0.25055E+00  0.28717E+00
  0.72998E-01  0.11873E+03    0.73000E-01 -0.34783E-01 -0.38217E-01  0.00000E+00  0.00000E+00  0.00000E+00    0.11873E+03  0.00000E+00  0.00000E+00 -0.18207E+00  0.25294E+00  0.28778E+00
  0.73998E-01  0.11912E+03    0.74000E-01 -0.35259E-01 -0.38741E-01  0.00000E+00  0.00000E+00  0.00000E+00    0.11912E+03  0.00000E+00  0.00000E+00 -0.18081E+00  0.25534E+00  0.28840E+00
  0.74998E-01  0.11951E+03    0.75000E-01 -0.35734E-01 -0.39266E-01  0.00000E+00  0.00000E+00  0.00000E+00    0.11951E+03  0.00000E+00  0.00000E+00 -0.17953E+00  0.25776E+00  0.28901E+00
  0.75998E-01  0.11990E+03    0.76000E-01 -0.36210E-01 -0.39790E-01  0.00000E+00  0.00000E+00  0.00000E+00    0.11989E+03  0.00000E+00  0.00000E+00 -0.17823E+00  0.26019E+00  0.28963E+00
  0.76998E-01  0.12028E+03    0.77000E-01 -0.36685E-01 -0.40315E-01  0.00000E+00  0.00000E+00  0.00000E+00    0.12028E+03  0.00000E+00  0.00000E+00 -0.17690E+00  0.26264E+00  0.29026E+00
  0.77998E-01  0.12066E+03    0.78000E-01 -0.37160E-01 -0.40840E-01  0.00000E+00  0.00000E+00  0.00000E+00    0.12066E+03  0.00000E+00  0.00000E+00 -0.17556E+00  0.26510E+00  0.29088E+00
  0.78998E-01  0.12104E+03    0.79000E-01 -0.37636E-01 -0.41364E-01  0.00000E+00  0.00000E+00  0.00000E+00    0.12104E+03  0.00000E+00  0.00000E+00 -0.17420E+00  0.26758E+00  0.29152E+00
  0.79998E-01  0.12142E+03    0.80000E-01 -0.38111E-01 -0.41889E-01  0.00000E+00  0.00000E+00  0.00000E+00    0.12142E+03  0.00000E+00  0.00000E+00 -0.17281E+00  0.27007E+00  0.29216E+00
  0.80998E-01  0.12179E+03    0.81000E-01 -0.38586E-01 -0.42414E-01  0.00000E+00  0.00000E+00  0.00000E+00    0.12179E+03  0.00000E+00  0.00000E+00 -0.17141E+00  0.27258E+00  0.29280E+00
  0.81998E-01  0.12217E+03    0.82000E-01 -0.39061E-01 -0.42939E-01  0.00000E+00  0.00000E+00  0.00000E+00    0.12217E+03  0.00000E+00  0.00000E+00 -0.16999E+00  0.27510E+00  0.29345E+00
  0.82998E-01  0.12254E+03    0.83000E-01 -0.39537E-01 -0.43463E-01  0.00000E+00  0.00000E+00  0.00000E+00    0.12254E+03  0.00000E+00  0.00000E+00 -0.16854E+00  0.27764E+00  0.29410E+00
  0.83998E-01  0.12291E+03    0.84000E-01 -0.40012E-01 -0.43988E-01  0.00000E+00  0.00000E+00  0.00000E+00    0.12291E+03  0.00000E+00  0.00000E+00 -0.16030E+00  0.28339E+00  0.29480E+00
  0.84998E-01  0.12325E+03    0.85000E-01 -0.40487E-01 -0.44513E-01  0.00000E+00  0.00000E+00  0.00000E+00    0.12325E+03  0.00000E+00  0.00000E+00 -0.16059E+00  0.28556E+00  0.29557E+00
  0.85998E-01  0.12361E+03    0.86000E-01 -0.40962E-01 -0.45038E-01  0.00000E+00  0.00000E+00  0.00000E+00    0.12361E+03  0.00000E+00  0.00000E+00 -0.15883E+00  0.28825E+00  0.29627E+00
  0.86998E-01  0.12398E+03    0.87000E-01 -0.41437E-01 -0.45563E-01  0.00000E+00  0.00000E+00  0.00000E+00    0.12397E+03  0.00000E+00  0.00000E+00 -0.15730E+00  0.29087E+00  0.29696E+00
  0.87998E-01  0.12434E+03    0.88000E-01 -0.41912E-01 -0.46088E-01  0.00000E+00  0.00000E+00  0.00000E+00    0.12434E+03  0.00000E+00  0.00000E+00 -0.15577E+00  0.29351E+00  0.29766E+00
  0.88998E-01  0.12470E+03    0.89000E-01 -0.42387E-01 -0.46613E-01  0.00000E+00  0.00000E+00  0.00000E+00    0.12470E+03  0.00000E+00  0.00000E+00 -0.15422E+00  0.29617E+00  0.29837E+00
  0.89998E-01  0.12510E+03    0.90000E-01 -0.42863E-01 -0.47137E-01  0.00000E+00  0.00000E+00  0.00000E+00    0.12510E+03  0.00000E+00  0.00000E+00 -0.15109E+00  0.29950E+00  0.29899E+00
  0.90998E-01  0.12547E+03    0.91000E-01 -0.43338E-01 -0.47662E-01  0.00000E+00  0.00000E+00  0.00000E+00    0.12547E+03  0.00000E+00  0.00000E+00 -0.14990E+00  0.30210E+00  0.29969E+00
  0.91998E-01  0.12582E+03    0.92000E-01 -0.43813E-01 -0.48187E-01  0.00000E+00  0.00000E+00  0.00000E+00    0.12582E+03  0.00000E+00  0.00000E+00 -0.14830E+00  0.30481E+00  0.30042E+00
  0.92998E-01  0.12618E+03    0.93000E-01 -0.44287E-01 -0.48713E-01  0.00000E+00  0.00000E+00  0.00000E+00    0.12617E+03  0.00000E+00  0.00000E+00 -0.14667E+00  0.30754E+00  0.30116E+00
  0.93998E-01  0.12653E+03    0.94000E-01 -0.44762E-01 -0.49238E-01  0.00000E+00  0.00000E+00  0.00000E+00    0.12653E+03  0.00000E+00  0.00000E+00 -0.14503E+00  0.31029E+00  0.30191E+00
  0.94998E-01  0.12688E+03    0.95000E-01 -0.45237E-01 -0.49763E-01  0.00000E+00  0.00000E+00  0.00000E+00    0.12687E+03  0.00000E+00  0.00000E+00 -0.14338E+00  0.31306E+00  0.30268E+00
  0.95998E-01  0.12722E+03    0.96000E-01 -0.45712E-01 -0.50288E-01  0.00000E+00  0.00000E+00  0.00000E+00    0.12722E+03  0.00000E+00  0.00000E+00 -0.14171E+00  0.31584E+00  0.30345E+00
  0.96998E-01  0.12757E+03    0.97000E-01 -0.46187E-01 -0.50813E-01  0.00000E+00  0.00000E+00  0.00000E+00    0.12757E+03  0.00000E+00  0.00000E+00 -0.14003E+00  0.31864E+00  0.30424E+00
  0.97998E-01  0.12791E+03    0.98000E-01 -0.46662E-01 -0.51338E-01  0.00000E+00  0.00000E+00  0.00000E+00    0.12791E+03  0.00000E+00  0.00000E+00 -0.13833E+00  0.32146E+00  0.30504E+00
  0.98998E-01  0.12826E+03    0.99000E-01 -0.47137E-01 -0.51863E-01  0.00000E+00  0.00000E+00  0.00000E+00    0.12825E+03  0.00000E+00  0.00000E+00 -0.13661E+00  0.32429E+00  0.30585E+00
  0.99998E-01  0.12860E+03    0.10000E+00 -0.47611E-01 -0.52389E-01  0.00000E+00  0.00000E+00  0.00000E+00    0.12860E+03  0.00000E+00  0.00000E+00 -0.13488E+00  0.32715E+00  0.30667E+00
