          Evm          Svm            E11          E22          E33          E23          E13          E12         SCAU11       SCAU22       SCAU33       SCAU23       SCAU13       SCAU12      TEMP
  0.00000E+00  0.83089E+02    0.00000E+00  0.00000E+00  0.00000E+00  0.00000E+00  0.00000E+00  0.00000E+00    0.83087E+02  0.00000E+00  0.00000E+00 -0.19271E+00  0.11947E+00  0.22959E+00
  0.99998E-03  0.83652E+02    0.10000E-02 -0.47967E-03 -0.52033E-03  0.00000E+00  0.00000E+00  0.00000E+00    0.83650E+02  0.00000E+00  0.00000E+00 -0.19714E+00  0.12238E+00  0.23269E+00
  0.20000E-02  0.84183E+02    0.20000E-02 -0.95784E-03 -0.10422E-02  0.00000E+00  0.00000E+00  0.00000E+00    0.84181E+02  0.00000E+00  0.00000E+00 -0.19750E+00  0.12341E+00  0.23477E+00
  0.29999E-02  0.84769E+02    0.30000E-02 -0.14356E-02 -0.15644E-02  0.00000E+00  0.00000E+00  0.00000E+00    0.84767E+02  0.00000E+00  0.00000E+00 -0.19861E+00  0.12454E+00  0.23623E+00
  0.39999E-02  0.85354E+02    0.40000E-02 -0.19132E-02 -0.20868E-02  0.00000E+00  0.00000E+00  0.00000E+00    0.85352E+02  0.00000E+00  0.00000E+00 -0.19958E+00  0.12569E+00  0.23744E+00
  0.49999E-02  0.85935E+02    0.50000E-02 -0.23906E-02 -0.26094E-02  0.00000E+00  0.00000E+00  0.00000E+00    0.85933E+02  0.00000E+00  0.00000E+00 -0.20051E+00  0.12687E+00  0.23855E+00
  0.59999E-02  0.86501E+02    0.60000E-02 -0.28678E-02 -0.31322E-02  0.00000E+00  0.00000E+00  0.00000E+00    0.86499E+02  0.00000E+00  0.00000E+00 -0.19946E+00  0.12888E+00  0.23963E+00
  0.69998E-02  0.87082E+02    0.70000E-02 -0.33451E-02 -0.36549E-02  0.00000E+00  0.00000E+00  0.00000E+00    0.87080E+02  0.00000E+00  0.00000E+00 -0.20031E+00  0.13025E+00  0.24067E+00
  0.79998E-02  0.87653E+02    0.80000E-02 -0.38222E-02 -0.41778E-02  0.00000E+00  0.00000E+00  0.00000E+00    0.87651E+02  0.00000E+00  0.00000E+00 -0.20110E+00  0.13151E+00  0.24164E+00
  0.89998E-02  0.88220E+02    0.90000E-02 -0.42993E-02 -0.47007E-02  0.00000E+00  0.00000E+00  0.00000E+00    0.88218E+02  0.00000E+00  0.00000E+00 -0.20184E+00  0.13280E+00  0.24259E+00
  0.99998E-02  0.88783E+02    0.10000E-01 -0.47764E-02 -0.52236E-02  0.00000E+00  0.00000E+00  0.00000E+00    0.88781E+02  0.00000E+00  0.00000E+00 -0.20254E+00  0.13410E+00  0.24353E+00
  0.11000E-01  0.89342E+02    0.11000E-01 -0.52535E-02 -0.57465E-02  0.00000E+00  0.00000E+00  0.00000E+00    0.89340E+02  0.00000E+00  0.00000E+00 -0.20320E+00  0.13543E+00  0.24445E+00
  0.12000E-01  0.89899E+02    0.12000E-01 -0.57305E-02 -0.62695E-02  0.00000E+00  0.00000E+00  0.00000E+00    0.89896E+02  0.00000E+00  0.00000E+00 -0.20382E+00  0.13678E+00  0.24534E+00
  0.13000E-01  0.90451E+02    0.13000E-01 -0.62075E-02 -0.67925E-02  0.00000E+00  0.00000E+00  0.00000E+00    0.90449E+02  0.00000E+00  0.00000E+00 -0.20440E+00  0.13815E+00  0.24623E+00
  0.14000E-01  0.91001E+02    0.14000E-01 -0.66845E-02 -0.73155E-02  0.00000E+00  0.00000E+00  0.00000E+00    0.90999E+02  0.00000E+00  0.00000E+00 -0.20493E+00  0.13954E+00  0.24710E+00
  0.15000E-01  0.91547E+02    0.15000E-01 -0.71614E-02 -0.78386E-02  0.00000E+00  0.00000E+00  0.00000E+00    0.91545E+02  0.00000E+00  0.00000E+00 -0.20543E+00  0.14095E+00  0.24796E+00
  0.16000E-01  0.92090E+02    0.16000E-01 -0.76384E-02 -0.83616E-02  0.00000E+00  0.00000E+00  0.00000E+00    0.92088E+02  0.00000E+00  0.00000E+00 -0.20589E+00  0.14238E+00  0.24881E+00
  0.17000E-01  0.92629E+02    0.17000E-01 -0.81153E-02 -0.88847E-02  0.00000E+00  0.00000E+00  0.00000E+00    0.92627E+02  0.00000E+00  0.00000E+00 -0.20630E+00  0.14384E+00  0.24965E+00
  0.18000E-01  0.93166E+02    0.18000E-01 -0.85922E-02 -0.94078E-02  0.00000E+00  0.00000E+00  0.00000E+00    0.93163E+02  0.00000E+00  0.00000E+00 -0.20668E+00  0.14532E+00  0.25047E+00
  0.19000E-01  0.93699E+02    0.19000E-01 -0.90690E-02 -0.99310E-02  0.00000E+00  0.00000E+00  0.00000E+00    0.93697E+02  0.00000E+00  0.00000E+00 -0.20702E+00  0.14681E+00  0.25129E+00
  0.20000E-01  0.94228E+02    0.20000E-01 -0.95459E-02 -0.10454E-01  0.00000E+00  0.00000E+00  0.00000E+00    0.94226E+02  0.00000E+00  0.00000E+00 -0.20732E+00  0.14833E+00  0.25209E+00
  0.21000E-01  0.94755E+02    0.21000E-01 -0.10023E-01 -0.10977E-01  0.00000E+00  0.00000E+00  0.00000E+00    0.94753E+02  0.00000E+00  0.00000E+00 -0.20758E+00  0.14987E+00  0.25288E+00
  0.22000E-01  0.95279E+02    0.22000E-01 -0.10500E-01 -0.11500E-01  0.00000E+00  0.00000E+00  0.00000E+00    0.95276E+02  0.00000E+00  0.00000E+00 -0.20780E+00  0.15143E+00  0.25367E+00
  0.22999E-01  0.95799E+02    0.23000E-01 -0.10976E-01 -0.12024E-01  0.00000E+00  0.00000E+00  0.00000E+00    0.95797E+02  0.00000E+00  0.00000E+00 -0.20799E+00  0.15301E+00  0.25444E+00
  0.23999E-01  0.96316E+02    0.24000E-01 -0.11453E-01 -0.12547E-01  0.00000E+00  0.00000E+00  0.00000E+00    0.96314E+02  0.00000E+00  0.00000E+00 -0.20814E+00  0.15461E+00  0.25520E+00
  0.24999E-01  0.96830E+02    0.25000E-01 -0.11930E-01 -0.13070E-01  0.00000E+00  0.00000E+00  0.00000E+00    0.96828E+02  0.00000E+00  0.00000E+00 -0.20826E+00  0.15623E+00  0.25596E+00
  0.25999E-01  0.97341E+02    0.26000E-01 -0.12406E-01 -0.13594E-01  0.00000E+00  0.00000E+00  0.00000E+00    0.97339E+02  0.00000E+00  0.00000E+00 -0.20833E+00  0.15787E+00  0.25671E+00
  0.26999E-01  0.97849E+02    0.27000E-01 -0.12883E-01 -0.14117E-01  0.00000E+00  0.00000E+00  0.00000E+00    0.97847E+02  0.00000E+00  0.00000E+00 -0.20838E+00  0.15954E+00  0.25745E+00
  0.27999E-01  0.98354E+02    0.28000E-01 -0.13360E-01 -0.14640E-01  0.00000E+00  0.00000E+00  0.00000E+00    0.98352E+02  0.00000E+00  0.00000E+00 -0.20838E+00  0.16122E+00  0.25818E+00
  0.28999E-01  0.98857E+02    0.29000E-01 -0.13836E-01 -0.15164E-01  0.00000E+00  0.00000E+00  0.00000E+00    0.98854E+02  0.00000E+00  0.00000E+00 -0.20836E+00  0.16291E+00  0.25890E+00
  0.29999E-01  0.99356E+02    0.30000E-01 -0.14313E-01 -0.15687E-01  0.00000E+00  0.00000E+00  0.00000E+00    0.99354E+02  0.00000E+00  0.00000E+00 -0.20829E+00  0.16463E+00  0.25962E+00
  0.30999E-01  0.99852E+02    0.31000E-01 -0.14790E-01 -0.16210E-01  0.00000E+00  0.00000E+00  0.00000E+00    0.99850E+02  0.00000E+00  0.00000E+00 -0.20819E+00  0.16637E+00  0.26033E+00
  0.31999E-01  0.10034E+03    0.32000E-01 -0.15266E-01 -0.16734E-01  0.00000E+00  0.00000E+00  0.00000E+00    0.10034E+03  0.00000E+00  0.00000E+00 -0.20806E+00  0.16813E+00  0.26103E+00
  0.32999E-01  0.10084E+03    0.33000E-01 -0.15743E-01 -0.17257E-01  0.00000E+00  0.00000E+00  0.00000E+00    0.10083E+03  0.00000E+00  0.00000E+00 -0.20789E+00  0.16990E+00  0.26173E+00
  0.33999E-01  0.10132E+03    0.34000E-01 -0.16219E-01 -0.17781E-01  0.00000E+00  0.00000E+00  0.00000E+00    0.10132E+03  0.00000E+00  0.00000E+00 -0.20769E+00  0.17170E+00  0.26242E+00
  0.34999E-01  0.10181E+03    0.35000E-01 -0.16696E-01 -0.18304E-01  0.00000E+00  0.00000E+00  0.00000E+00    0.10181E+03  0.00000E+00  0.00000E+00 -0.20747E+00  0.17351E+00  0.26310E+00
  0.35999E-01  0.10229E+03    0.36000E-01 -0.17172E-01 -0.18828E-01  0.00000E+00  0.00000E+00  0.00000E+00    0.10229E+03  0.00000E+00  0.00000E+00 -0.20720E+00  0.17534E+00  0.26378E+00
  0.36999E-01  0.10277E+03    0.37000E-01 -0.17649E-01 -0.19351E-01  0.00000E+00  0.00000E+00  0.00000E+00    0.10277E+03  0.00000E+00  0.00000E+00 -0.20691E+00  0.17719E+00  0.26445E+00
  0.37999E-01  0.10324E+03    0.38000E-01 -0.18125E-01 -0.19875E-01  0.00000E+00  0.00000E+00  0.00000E+00    0.10324E+03  0.00000E+00  0.00000E+00 -0.20658E+00  0.17906E+00  0.26511E+00
  0.38999E-01  0.10372E+03    0.39000E-01 -0.18601E-01 -0.20399E-01  0.00000E+00  0.00000E+00  0.00000E+00    0.10372E+03  0.00000E+00  0.00000E+00 -0.20622E+00  0.18094E+00  0.26577E+00
  0.39999E-01  0.10419E+03    0.40000E-01 -0.19078E-01 -0.20922E-01  0.00000E+00  0.00000E+00  0.00000E+00    0.10419E+03  0.00000E+00  0.00000E+00 -0.20583E+00  0.18284E+00  0.26643E+00
  0.40999E-01  0.10466E+03    0.41000E-01 -0.19554E-01 -0.21446E-01  0.00000E+00  0.00000E+00  0.00000E+00    0.10465E+03  0.00000E+00  0.00000E+00 -0.20541E+00  0.18476E+00  0.26708E+00
  0.41999E-01  0.10512E+03    0.42000E-01 -0.20030E-01 -0.21970E-01  0.00000E+00  0.00000E+00  0.00000E+00    0.10512E+03  0.00000E+00  0.00000E+00 -0.20497E+00  0.18670E+00  0.26772E+00
  0.42999E-01  0.10558E+03    0.43000E-01 -0.20507E-01 -0.22493E-01  0.00000E+00  0.00000E+00  0.00000E+00    0.10558E+03  0.00000E+00  0.00000E+00 -0.20448E+00  0.18866E+00  0.26836E+00
  0.43999E-01  0.10604E+03    0.44000E-01 -0.20983E-01 -0.23017E-01  0.00000E+00  0.00000E+00  0.00000E+00    0.10604E+03  0.00000E+00  0.00000E+00 -0.20398E+00  0.19063E+00  0.26899E+00
  0.44999E-01  0.10647E+03    0.45000E-01 -0.21459E-01 -0.23541E-01  0.00000E+00  0.00000E+00  0.00000E+00    0.10647E+03  0.00000E+00  0.00000E+00 -0.20647E+00  0.19102E+00  0.26964E+00
  0.45999E-01  0.10695E+03    0.46000E-01 -0.21935E-01 -0.24065E-01  0.00000E+00  0.00000E+00  0.00000E+00    0.10695E+03  0.00000E+00  0.00000E+00 -0.20308E+00  0.19447E+00  0.27021E+00
  0.46999E-01  0.10737E+03    0.47000E-01 -0.22412E-01 -0.24588E-01  0.00000E+00  0.00000E+00  0.00000E+00    0.10737E+03  0.00000E+00  0.00000E+00 -0.20533E+00  0.19499E+00  0.27090E+00
  0.47999E-01  0.10783E+03    0.48000E-01 -0.22888E-01 -0.25112E-01  0.00000E+00  0.00000E+00  0.00000E+00    0.10782E+03  0.00000E+00  0.00000E+00 -0.20478E+00  0.19693E+00  0.27152E+00
  0.48999E-01  0.10827E+03    0.49000E-01 -0.23364E-01 -0.25636E-01  0.00000E+00  0.00000E+00  0.00000E+00    0.10827E+03  0.00000E+00  0.00000E+00 -0.20414E+00  0.19896E+00  0.27214E+00
  0.49999E-01  0.10872E+03    0.50000E-01 -0.23840E-01 -0.26160E-01  0.00000E+00  0.00000E+00  0.00000E+00    0.10872E+03  0.00000E+00  0.00000E+00 -0.20346E+00  0.20100E+00  0.27276E+00
  0.50999E-01  0.10916E+03    0.51000E-01 -0.24316E-01 -0.26684E-01  0.00000E+00  0.00000E+00  0.00000E+00    0.10916E+03  0.00000E+00  0.00000E+00 -0.20276E+00  0.20306E+00  0.27338E+00
  0.51999E-01  0.10960E+03    0.52000E-01 -0.24792E-01 -0.27208E-01  0.00000E+00  0.00000E+00  0.00000E+00    0.10960E+03  0.00000E+00  0.00000E+00 -0.20203E+00  0.20514E+00  0.27399E+00
  0.52999E-01  0.11004E+03    0.53000E-01 -0.25268E-01 -0.27732E-01  0.00000E+00  0.00000E+00  0.00000E+00    0.11003E+03  0.00000E+00  0.00000E+00 -0.20127E+00  0.20723E+00  0.27460E+00
  0.53999E-01  0.11047E+03    0.54000E-01 -0.25744E-01 -0.28256E-01  0.00000E+00  0.00000E+00  0.00000E+00    0.11047E+03  0.00000E+00  0.00000E+00 -0.20049E+00  0.20934E+00  0.27521E+00
  0.54999E-01  0.11092E+03    0.55000E-01 -0.26220E-01 -0.28780E-01  0.00000E+00  0.00000E+00  0.00000E+00    0.11092E+03  0.00000E+00  0.00000E+00 -0.19680E+00  0.21307E+00  0.27569E+00
  0.55999E-01  0.11133E+03    0.56000E-01 -0.26696E-01 -0.29304E-01  0.00000E+00  0.00000E+00  0.00000E+00    0.11133E+03  0.00000E+00  0.00000E+00 -0.19880E+00  0.21367E+00  0.27643E+00
  0.56999E-01  0.11178E+03    0.57000E-01 -0.27172E-01 -0.29828E-01  0.00000E+00  0.00000E+00  0.00000E+00    0.11178E+03  0.00000E+00  0.00000E+00 -0.19512E+00  0.21739E+00  0.27689E+00
  0.57999E-01  0.11218E+03    0.58000E-01 -0.27648E-01 -0.30352E-01  0.00000E+00  0.00000E+00  0.00000E+00    0.11218E+03  0.00000E+00  0.00000E+00 -0.19705E+00  0.21799E+00  0.27763E+00
  0.58999E-01  0.11260E+03    0.59000E-01 -0.28124E-01 -0.30876E-01  0.00000E+00  0.00000E+00  0.00000E+00    0.11260E+03  0.00000E+00  0.00000E+00 -0.19654E+00  0.21994E+00  0.27821E+00
  0.59999E-01  0.11303E+03    0.60000E-01 -0.28600E-01 -0.31400E-01  0.00000E+00  0.00000E+00  0.00000E+00    0.11303E+03  0.00000E+00  0.00000E+00 -0.19528E+00  0.22228E+00  0.27883E+00
  0.60999E-01  0.11344E+03    0.61000E-01 -0.29075E-01 -0.31925E-01  0.00000E+00  0.00000E+00  0.00000E+00    0.11343E+03  0.00000E+00  0.00000E+00 -0.19465E+00  0.22434E+00  0.27941E+00
  0.61999E-01  0.11386E+03    0.62000E-01 -0.29551E-01 -0.32449E-01  0.00000E+00  0.00000E+00  0.00000E+00    0.11386E+03  0.00000E+00  0.00000E+00 -0.19333E+00  0.22672E+00  0.28003E+00
  0.62999E-01  0.11427E+03    0.63000E-01 -0.30027E-01 -0.32973E-01  0.00000E+00  0.00000E+00  0.00000E+00    0.11426E+03  0.00000E+00  0.00000E+00 -0.19266E+00  0.22881E+00  0.28062E+00
  0.63999E-01  0.11469E+03    0.64000E-01 -0.30503E-01 -0.33497E-01  0.00000E+00  0.00000E+00  0.00000E+00    0.11469E+03  0.00000E+00  0.00000E+00 -0.19129E+00  0.23121E+00  0.28123E+00
  0.64999E-01  0.11509E+03    0.65000E-01 -0.30978E-01 -0.34022E-01  0.00000E+00  0.00000E+00  0.00000E+00    0.11508E+03  0.00000E+00  0.00000E+00 -0.19057E+00  0.23332E+00  0.28182E+00
  0.65999E-01  0.11550E+03    0.66000E-01 -0.31454E-01 -0.34546E-01  0.00000E+00  0.00000E+00  0.00000E+00    0.11550E+03  0.00000E+00  0.00000E+00 -0.18916E+00  0.23576E+00  0.28242E+00
  0.66999E-01  0.11590E+03    0.67000E-01 -0.31930E-01 -0.35070E-01  0.00000E+00  0.00000E+00  0.00000E+00    0.11589E+03  0.00000E+00  0.00000E+00 -0.18839E+00  0.23790E+00  0.28302E+00
  0.67999E-01  0.11631E+03    0.68000E-01 -0.32405E-01 -0.35595E-01  0.00000E+00  0.00000E+00  0.00000E+00    0.11631E+03  0.00000E+00  0.00000E+00 -0.18694E+00  0.24037E+00  0.28362E+00
  0.68999E-01  0.11670E+03    0.69000E-01 -0.32881E-01 -0.36119E-01  0.00000E+00  0.00000E+00  0.00000E+00    0.11670E+03  0.00000E+00  0.00000E+00 -0.18612E+00  0.24254E+00  0.28422E+00
  0.69999E-01  0.11710E+03    0.70000E-01 -0.33357E-01 -0.36643E-01  0.00000E+00  0.00000E+00  0.00000E+00    0.11709E+03  0.00000E+00  0.00000E+00 -0.18502E+00  0.24486E+00  0.28483E+00
  0.70999E-01  0.11749E+03    0.71000E-01 -0.33832E-01 -0.37168E-01  0.00000E+00  0.00000E+00  0.00000E+00    0.11749E+03  0.00000E+00  0.00000E+00 -0.18384E+00  0.24720E+00  0.28544E+00
  0.71999E-01  0.11789E+03    0.72000E-01 -0.34308E-01 -0.37692E-01  0.00000E+00  0.00000E+00  0.00000E+00    0.11788E+03  0.00000E+00  0.00000E+00 -0.18263E+00  0.24957E+00  0.28604E+00
  0.72998E-01  0.11828E+03    0.73000E-01 -0.34783E-01 -0.38217E-01  0.00000E+00  0.00000E+00  0.00000E+00    0.11828E+03  0.00000E+00  0.00000E+00 -0.18139E+00  0.25195E+00  0.28666E+00
  0.73998E-01  0.11867E+03    0.74000E-01 -0.35259E-01 -0.38741E-01  0.00000E+00  0.00000E+00  0.00000E+00    0.11866E+03  0.00000E+00  0.00000E+00 -0.18014E+00  0.25435E+00  0.28727E+00
  0.74998E-01  0.11905E+03    0.75000E-01 -0.35734E-01 -0.39266E-01  0.00000E+00  0.00000E+00  0.00000E+00    0.11905E+03  0.00000E+00  0.00000E+00 -0.17886E+00  0.25676E+00  0.28789E+00
  0.75998E-01  0.11944E+03    0.76000E-01 -0.36210E-01 -0.39790E-01  0.00000E+00  0.00000E+00  0.00000E+00    0.11944E+03  0.00000E+00  0.00000E+00 -0.17757E+00  0.25919E+00  0.28851E+00
  0.76998E-01  0.11982E+03    0.77000E-01 -0.36685E-01 -0.40315E-01  0.00000E+00  0.00000E+00  0.00000E+00    0.11982E+03  0.00000E+00  0.00000E+00 -0.17625E+00  0.26163E+00  0.28913E+00
  0.77998E-01  0.12020E+03    0.78000E-01 -0.37160E-01 -0.40840E-01  0.00000E+00  0.00000E+00  0.00000E+00    0.12020E+03  0.00000E+00  0.00000E+00 -0.17491E+00  0.26409E+00  0.28976E+00
  0.78998E-01  0.12058E+03    0.79000E-01 -0.37636E-01 -0.41364E-01  0.00000E+00  0.00000E+00  0.00000E+00    0.12058E+03  0.00000E+00  0.00000E+00 -0.17356E+00  0.26656E+00  0.29040E+00
  0.79998E-01  0.12096E+03    0.80000E-01 -0.38111E-01 -0.41889E-01  0.00000E+00  0.00000E+00  0.00000E+00    0.12096E+03  0.00000E+00  0.00000E+00 -0.17218E+00  0.26905E+00  0.29104E+00
  0.80998E-01  0.12134E+03    0.81000E-01 -0.38586E-01 -0.42414E-01  0.00000E+00  0.00000E+00  0.00000E+00    0.12133E+03  0.00000E+00  0.00000E+00 -0.17078E+00  0.27155E+00  0.29168E+00
  0.81998E-01  0.12171E+03    0.82000E-01 -0.39061E-01 -0.42939E-01  0.00000E+00  0.00000E+00  0.00000E+00    0.12171E+03  0.00000E+00  0.00000E+00 -0.16937E+00  0.27407E+00  0.29233E+00
  0.82998E-01  0.12208E+03    0.83000E-01 -0.39537E-01 -0.43463E-01  0.00000E+00  0.00000E+00  0.00000E+00    0.12208E+03  0.00000E+00  0.00000E+00 -0.16793E+00  0.27660E+00  0.29299E+00
  0.83998E-01  0.12245E+03    0.84000E-01 -0.40012E-01 -0.43988E-01  0.00000E+00  0.00000E+00  0.00000E+00    0.12245E+03  0.00000E+00  0.00000E+00 -0.16648E+00  0.27915E+00  0.29365E+00
  0.84998E-01  0.12282E+03    0.85000E-01 -0.40487E-01 -0.44513E-01  0.00000E+00  0.00000E+00  0.00000E+00    0.12282E+03  0.00000E+00  0.00000E+00 -0.15823E+00  0.28493E+00  0.29435E+00
  0.85998E-01  0.12316E+03    0.86000E-01 -0.40962E-01 -0.45038E-01  0.00000E+00  0.00000E+00  0.00000E+00    0.12316E+03  0.00000E+00  0.00000E+00 -0.15851E+00  0.28711E+00  0.29514E+00
  0.86998E-01  0.12352E+03    0.87000E-01 -0.41437E-01 -0.45563E-01  0.00000E+00  0.00000E+00  0.00000E+00    0.12352E+03  0.00000E+00  0.00000E+00 -0.15673E+00  0.28980E+00  0.29584E+00
  0.87998E-01  0.12388E+03    0.88000E-01 -0.41912E-01 -0.46088E-01  0.00000E+00  0.00000E+00  0.00000E+00    0.12388E+03  0.00000E+00  0.00000E+00 -0.15519E+00  0.29244E+00  0.29655E+00
  0.88998E-01  0.12424E+03    0.89000E-01 -0.42388E-01 -0.46612E-01  0.00000E+00  0.00000E+00  0.00000E+00    0.12424E+03  0.00000E+00  0.00000E+00 -0.15365E+00  0.29509E+00  0.29725E+00
  0.89998E-01  0.12465E+03    0.90000E-01 -0.42863E-01 -0.47137E-01  0.00000E+00  0.00000E+00  0.00000E+00    0.12464E+03  0.00000E+00  0.00000E+00 -0.15053E+00  0.29841E+00  0.29788E+00
  0.90998E-01  0.12501E+03    0.91000E-01 -0.43338E-01 -0.47662E-01  0.00000E+00  0.00000E+00  0.00000E+00    0.12501E+03  0.00000E+00  0.00000E+00 -0.14934E+00  0.30100E+00  0.29858E+00
  0.91998E-01  0.12537E+03    0.92000E-01 -0.43813E-01 -0.48187E-01  0.00000E+00  0.00000E+00  0.00000E+00    0.12536E+03  0.00000E+00  0.00000E+00 -0.14775E+00  0.30371E+00  0.29931E+00
  0.92998E-01  0.12572E+03    0.93000E-01 -0.44288E-01 -0.48712E-01  0.00000E+00  0.00000E+00  0.00000E+00    0.12572E+03  0.00000E+00  0.00000E+00 -0.14613E+00  0.30643E+00  0.30005E+00
  0.93998E-01  0.12607E+03    0.94000E-01 -0.44762E-01 -0.49238E-01  0.00000E+00  0.00000E+00  0.00000E+00    0.12607E+03  0.00000E+00  0.00000E+00 -0.14450E+00  0.30917E+00  0.30080E+00
  0.94998E-01  0.12642E+03    0.95000E-01 -0.45237E-01 -0.49763E-01  0.00000E+00  0.00000E+00  0.00000E+00    0.12642E+03  0.00000E+00  0.00000E+00 -0.14285E+00  0.31193E+00  0.30157E+00
  0.95998E-01  0.12677E+03    0.96000E-01 -0.45712E-01 -0.50288E-01  0.00000E+00  0.00000E+00  0.00000E+00    0.12676E+03  0.00000E+00  0.00000E+00 -0.14119E+00  0.31471E+00  0.30234E+00
  0.96998E-01  0.12711E+03    0.97000E-01 -0.46187E-01 -0.50813E-01  0.00000E+00  0.00000E+00  0.00000E+00    0.12711E+03  0.00000E+00  0.00000E+00 -0.13951E+00  0.31750E+00  0.30313E+00
  0.97998E-01  0.12746E+03    0.98000E-01 -0.46662E-01 -0.51338E-01  0.00000E+00  0.00000E+00  0.00000E+00    0.12745E+03  0.00000E+00  0.00000E+00 -0.13782E+00  0.32031E+00  0.30393E+00
  0.98998E-01  0.12780E+03    0.99000E-01 -0.47137E-01 -0.51863E-01  0.00000E+00  0.00000E+00  0.00000E+00    0.12780E+03  0.00000E+00  0.00000E+00 -0.13611E+00  0.32314E+00  0.30474E+00
  0.99998E-01  0.12814E+03    0.10000E+00 -0.47611E-01 -0.52389E-01  0.00000E+00  0.00000E+00  0.00000E+00    0.12814E+03  0.00000E+00  0.00000E+00 -0.13439E+00  0.32599E+00  0.30556E+00
