          Evm          Svm            E11          E22          E33          E23          E13          E12         SCAU11       SCAU22       SCAU33       SCAU23       SCAU13       SCAU12      TEMP
  0.00000E+00  0.91359E+02    0.00000E+00  0.00000E+00  0.00000E+00  0.00000E+00  0.00000E+00  0.00000E+00    0.91357E+02  0.00000E+00  0.00000E+00 -0.21189E+00  0.13137E+00  0.25244E+00
  0.99998E-03  0.91921E+02    0.10000E-02 -0.47967E-03 -0.52033E-03  0.00000E+00  0.00000E+00  0.00000E+00    0.91919E+02  0.00000E+00  0.00000E+00 -0.21636E+00  0.13449E+00  0.25571E+00
  0.20000E-02  0.92452E+02    0.20000E-02 -0.95784E-03 -0.10422E-02  0.00000E+00  0.00000E+00  0.00000E+00    0.92450E+02  0.00000E+00  0.00000E+00 -0.21665E+00  0.13552E+00  0.25785E+00
  0.29999E-02  0.93030E+02    0.30000E-02 -0.14356E-02 -0.15644E-02  0.00000E+00  0.00000E+00  0.00000E+00    0.93028E+02  0.00000E+00  0.00000E+00 -0.21578E+00  0.13756E+00  0.25922E+00
  0.39999E-02  0.93623E+02    0.40000E-02 -0.19132E-02 -0.20868E-02  0.00000E+00  0.00000E+00  0.00000E+00    0.93620E+02  0.00000E+00  0.00000E+00 -0.21670E+00  0.13886E+00  0.26050E+00
  0.49999E-02  0.94204E+02    0.50000E-02 -0.23906E-02 -0.26094E-02  0.00000E+00  0.00000E+00  0.00000E+00    0.94202E+02  0.00000E+00  0.00000E+00 -0.21756E+00  0.14010E+00  0.26158E+00
  0.59999E-02  0.94782E+02    0.60000E-02 -0.28679E-02 -0.31321E-02  0.00000E+00  0.00000E+00  0.00000E+00    0.94779E+02  0.00000E+00  0.00000E+00 -0.21836E+00  0.14136E+00  0.26259E+00
  0.69998E-02  0.95355E+02    0.70000E-02 -0.33452E-02 -0.36548E-02  0.00000E+00  0.00000E+00  0.00000E+00    0.95353E+02  0.00000E+00  0.00000E+00 -0.21912E+00  0.14264E+00  0.26357E+00
  0.79998E-02  0.95926E+02    0.80000E-02 -0.38224E-02 -0.41776E-02  0.00000E+00  0.00000E+00  0.00000E+00    0.95924E+02  0.00000E+00  0.00000E+00 -0.21984E+00  0.14395E+00  0.26451E+00
  0.89998E-02  0.96493E+02    0.90000E-02 -0.42995E-02 -0.47005E-02  0.00000E+00  0.00000E+00  0.00000E+00    0.96490E+02  0.00000E+00  0.00000E+00 -0.22051E+00  0.14529E+00  0.26543E+00
  0.99998E-02  0.97056E+02    0.10000E-01 -0.47766E-02 -0.52234E-02  0.00000E+00  0.00000E+00  0.00000E+00    0.97054E+02  0.00000E+00  0.00000E+00 -0.22114E+00  0.14665E+00  0.26632E+00
  0.11000E-01  0.97616E+02    0.11000E-01 -0.52537E-02 -0.57463E-02  0.00000E+00  0.00000E+00  0.00000E+00    0.97614E+02  0.00000E+00  0.00000E+00 -0.22172E+00  0.14803E+00  0.26720E+00
  0.12000E-01  0.98172E+02    0.12000E-01 -0.57307E-02 -0.62693E-02  0.00000E+00  0.00000E+00  0.00000E+00    0.98170E+02  0.00000E+00  0.00000E+00 -0.22226E+00  0.14944E+00  0.26806E+00
  0.13000E-01  0.98725E+02    0.13000E-01 -0.62077E-02 -0.67923E-02  0.00000E+00  0.00000E+00  0.00000E+00    0.98723E+02  0.00000E+00  0.00000E+00 -0.22277E+00  0.15086E+00  0.26890E+00
  0.14000E-01  0.99275E+02    0.14000E-01 -0.66847E-02 -0.73153E-02  0.00000E+00  0.00000E+00  0.00000E+00    0.99273E+02  0.00000E+00  0.00000E+00 -0.22323E+00  0.15232E+00  0.26972E+00
  0.15000E-01  0.99822E+02    0.15000E-01 -0.71616E-02 -0.78384E-02  0.00000E+00  0.00000E+00  0.00000E+00    0.99819E+02  0.00000E+00  0.00000E+00 -0.22364E+00  0.15379E+00  0.27054E+00
  0.16000E-01  0.10036E+03    0.16000E-01 -0.76386E-02 -0.83614E-02  0.00000E+00  0.00000E+00  0.00000E+00    0.10036E+03  0.00000E+00  0.00000E+00 -0.22402E+00  0.15529E+00  0.27134E+00
  0.17000E-01  0.10090E+03    0.17000E-01 -0.81155E-02 -0.88845E-02  0.00000E+00  0.00000E+00  0.00000E+00    0.10090E+03  0.00000E+00  0.00000E+00 -0.22436E+00  0.15680E+00  0.27213E+00
  0.18000E-01  0.10144E+03    0.18000E-01 -0.85924E-02 -0.94076E-02  0.00000E+00  0.00000E+00  0.00000E+00    0.10144E+03  0.00000E+00  0.00000E+00 -0.22466E+00  0.15835E+00  0.27291E+00
  0.19000E-01  0.10197E+03    0.19000E-01 -0.90692E-02 -0.99308E-02  0.00000E+00  0.00000E+00  0.00000E+00    0.10197E+03  0.00000E+00  0.00000E+00 -0.22491E+00  0.15991E+00  0.27368E+00
  0.20000E-01  0.10250E+03    0.20000E-01 -0.95461E-02 -0.10454E-01  0.00000E+00  0.00000E+00  0.00000E+00    0.10250E+03  0.00000E+00  0.00000E+00 -0.22513E+00  0.16149E+00  0.27444E+00
  0.21000E-01  0.10303E+03    0.21000E-01 -0.10023E-01 -0.10977E-01  0.00000E+00  0.00000E+00  0.00000E+00    0.10303E+03  0.00000E+00  0.00000E+00 -0.22531E+00  0.16310E+00  0.27518E+00
  0.22000E-01  0.10356E+03    0.22000E-01 -0.10500E-01 -0.11500E-01  0.00000E+00  0.00000E+00  0.00000E+00    0.10355E+03  0.00000E+00  0.00000E+00 -0.22545E+00  0.16473E+00  0.27592E+00
  0.22999E-01  0.10408E+03    0.23000E-01 -0.10976E-01 -0.12024E-01  0.00000E+00  0.00000E+00  0.00000E+00    0.10407E+03  0.00000E+00  0.00000E+00 -0.22555E+00  0.16638E+00  0.27665E+00
  0.23999E-01  0.10459E+03    0.24000E-01 -0.11453E-01 -0.12547E-01  0.00000E+00  0.00000E+00  0.00000E+00    0.10459E+03  0.00000E+00  0.00000E+00 -0.22561E+00  0.16805E+00  0.27737E+00
  0.24999E-01  0.10511E+03    0.25000E-01 -0.11930E-01 -0.13070E-01  0.00000E+00  0.00000E+00  0.00000E+00    0.10511E+03  0.00000E+00  0.00000E+00 -0.22563E+00  0.16974E+00  0.27808E+00
  0.25999E-01  0.10562E+03    0.26000E-01 -0.12407E-01 -0.13593E-01  0.00000E+00  0.00000E+00  0.00000E+00    0.10562E+03  0.00000E+00  0.00000E+00 -0.22562E+00  0.17145E+00  0.27879E+00
  0.26999E-01  0.10613E+03    0.27000E-01 -0.12883E-01 -0.14117E-01  0.00000E+00  0.00000E+00  0.00000E+00    0.10613E+03  0.00000E+00  0.00000E+00 -0.22557E+00  0.17319E+00  0.27948E+00
  0.27999E-01  0.10663E+03    0.28000E-01 -0.13360E-01 -0.14640E-01  0.00000E+00  0.00000E+00  0.00000E+00    0.10663E+03  0.00000E+00  0.00000E+00 -0.22548E+00  0.17494E+00  0.28017E+00
  0.28999E-01  0.10714E+03    0.29000E-01 -0.13837E-01 -0.15163E-01  0.00000E+00  0.00000E+00  0.00000E+00    0.10713E+03  0.00000E+00  0.00000E+00 -0.22536E+00  0.17672E+00  0.28085E+00
  0.29999E-01  0.10763E+03    0.30000E-01 -0.14313E-01 -0.15687E-01  0.00000E+00  0.00000E+00  0.00000E+00    0.10763E+03  0.00000E+00  0.00000E+00 -0.22520E+00  0.17851E+00  0.28153E+00
  0.30999E-01  0.10813E+03    0.31000E-01 -0.14790E-01 -0.16210E-01  0.00000E+00  0.00000E+00  0.00000E+00    0.10813E+03  0.00000E+00  0.00000E+00 -0.22501E+00  0.18033E+00  0.28219E+00
  0.31999E-01  0.10862E+03    0.32000E-01 -0.15266E-01 -0.16734E-01  0.00000E+00  0.00000E+00  0.00000E+00    0.10862E+03  0.00000E+00  0.00000E+00 -0.22479E+00  0.18216E+00  0.28285E+00
  0.32999E-01  0.10912E+03    0.33000E-01 -0.15743E-01 -0.17257E-01  0.00000E+00  0.00000E+00  0.00000E+00    0.10911E+03  0.00000E+00  0.00000E+00 -0.22452E+00  0.18401E+00  0.28350E+00
  0.33999E-01  0.10960E+03    0.34000E-01 -0.16219E-01 -0.17781E-01  0.00000E+00  0.00000E+00  0.00000E+00    0.10960E+03  0.00000E+00  0.00000E+00 -0.22423E+00  0.18589E+00  0.28415E+00
  0.34999E-01  0.11009E+03    0.35000E-01 -0.16696E-01 -0.18304E-01  0.00000E+00  0.00000E+00  0.00000E+00    0.11009E+03  0.00000E+00  0.00000E+00 -0.22390E+00  0.18778E+00  0.28479E+00
  0.35999E-01  0.11053E+03    0.36000E-01 -0.17172E-01 -0.18828E-01  0.00000E+00  0.00000E+00  0.00000E+00    0.11053E+03  0.00000E+00  0.00000E+00 -0.22656E+00  0.18824E+00  0.28541E+00
  0.36999E-01  0.11104E+03    0.37000E-01 -0.17649E-01 -0.19351E-01  0.00000E+00  0.00000E+00  0.00000E+00    0.11104E+03  0.00000E+00  0.00000E+00 -0.22334E+00  0.19150E+00  0.28602E+00
  0.37999E-01  0.11149E+03    0.38000E-01 -0.18125E-01 -0.19875E-01  0.00000E+00  0.00000E+00  0.00000E+00    0.11149E+03  0.00000E+00  0.00000E+00 -0.22575E+00  0.19207E+00  0.28666E+00
  0.38999E-01  0.11196E+03    0.39000E-01 -0.18602E-01 -0.20398E-01  0.00000E+00  0.00000E+00  0.00000E+00    0.11196E+03  0.00000E+00  0.00000E+00 -0.22538E+00  0.19394E+00  0.28729E+00
  0.39999E-01  0.11243E+03    0.40000E-01 -0.19078E-01 -0.20922E-01  0.00000E+00  0.00000E+00  0.00000E+00    0.11243E+03  0.00000E+00  0.00000E+00 -0.22490E+00  0.19591E+00  0.28790E+00
  0.40999E-01  0.11290E+03    0.41000E-01 -0.19554E-01 -0.21446E-01  0.00000E+00  0.00000E+00  0.00000E+00    0.11290E+03  0.00000E+00  0.00000E+00 -0.22438E+00  0.19789E+00  0.28852E+00
  0.41999E-01  0.11337E+03    0.42000E-01 -0.20031E-01 -0.21969E-01  0.00000E+00  0.00000E+00  0.00000E+00    0.11337E+03  0.00000E+00  0.00000E+00 -0.22384E+00  0.19989E+00  0.28913E+00
  0.42999E-01  0.11383E+03    0.43000E-01 -0.20507E-01 -0.22493E-01  0.00000E+00  0.00000E+00  0.00000E+00    0.11383E+03  0.00000E+00  0.00000E+00 -0.22326E+00  0.20191E+00  0.28974E+00
  0.43999E-01  0.11429E+03    0.44000E-01 -0.20983E-01 -0.23017E-01  0.00000E+00  0.00000E+00  0.00000E+00    0.11429E+03  0.00000E+00  0.00000E+00 -0.22265E+00  0.20395E+00  0.29034E+00
  0.44999E-01  0.11475E+03    0.45000E-01 -0.21459E-01 -0.23541E-01  0.00000E+00  0.00000E+00  0.00000E+00    0.11475E+03  0.00000E+00  0.00000E+00 -0.22201E+00  0.20600E+00  0.29094E+00
  0.45999E-01  0.11523E+03    0.46000E-01 -0.21936E-01 -0.24064E-01  0.00000E+00  0.00000E+00  0.00000E+00    0.11522E+03  0.00000E+00  0.00000E+00 -0.21844E+00  0.20957E+00  0.29144E+00
  0.46999E-01  0.11566E+03    0.47000E-01 -0.22412E-01 -0.24588E-01  0.00000E+00  0.00000E+00  0.00000E+00    0.11565E+03  0.00000E+00  0.00000E+00 -0.22058E+00  0.21023E+00  0.29213E+00
  0.47999E-01  0.11613E+03    0.48000E-01 -0.22888E-01 -0.25112E-01  0.00000E+00  0.00000E+00  0.00000E+00    0.11613E+03  0.00000E+00  0.00000E+00 -0.21702E+00  0.21379E+00  0.29261E+00
  0.48999E-01  0.11656E+03    0.49000E-01 -0.23364E-01 -0.25636E-01  0.00000E+00  0.00000E+00  0.00000E+00    0.11655E+03  0.00000E+00  0.00000E+00 -0.21910E+00  0.21446E+00  0.29331E+00
  0.49999E-01  0.11702E+03    0.50000E-01 -0.23840E-01 -0.26160E-01  0.00000E+00  0.00000E+00  0.00000E+00    0.11702E+03  0.00000E+00  0.00000E+00 -0.21548E+00  0.21809E+00  0.29378E+00
  0.50999E-01  0.11744E+03    0.51000E-01 -0.24316E-01 -0.26684E-01  0.00000E+00  0.00000E+00  0.00000E+00    0.11744E+03  0.00000E+00  0.00000E+00 -0.21750E+00  0.21875E+00  0.29448E+00
  0.51999E-01  0.11787E+03    0.52000E-01 -0.24792E-01 -0.27208E-01  0.00000E+00  0.00000E+00  0.00000E+00    0.11787E+03  0.00000E+00  0.00000E+00 -0.21707E+00  0.22071E+00  0.29503E+00
  0.52999E-01  0.11832E+03    0.53000E-01 -0.25268E-01 -0.27732E-01  0.00000E+00  0.00000E+00  0.00000E+00    0.11832E+03  0.00000E+00  0.00000E+00 -0.21588E+00  0.22303E+00  0.29563E+00
  0.53999E-01  0.11875E+03    0.54000E-01 -0.25744E-01 -0.28256E-01  0.00000E+00  0.00000E+00  0.00000E+00    0.11874E+03  0.00000E+00  0.00000E+00 -0.21531E+00  0.22509E+00  0.29618E+00
  0.54999E-01  0.11919E+03    0.55000E-01 -0.26220E-01 -0.28780E-01  0.00000E+00  0.00000E+00  0.00000E+00    0.11919E+03  0.00000E+00  0.00000E+00 -0.21407E+00  0.22745E+00  0.29678E+00
  0.55999E-01  0.11961E+03    0.56000E-01 -0.26696E-01 -0.29304E-01  0.00000E+00  0.00000E+00  0.00000E+00    0.11961E+03  0.00000E+00  0.00000E+00 -0.21345E+00  0.22954E+00  0.29733E+00
  0.56999E-01  0.12005E+03    0.57000E-01 -0.27172E-01 -0.29828E-01  0.00000E+00  0.00000E+00  0.00000E+00    0.12005E+03  0.00000E+00  0.00000E+00 -0.21215E+00  0.23193E+00  0.29792E+00
  0.57999E-01  0.12046E+03    0.58000E-01 -0.27648E-01 -0.30352E-01  0.00000E+00  0.00000E+00  0.00000E+00    0.12046E+03  0.00000E+00  0.00000E+00 -0.21148E+00  0.23405E+00  0.29848E+00
  0.58999E-01  0.12090E+03    0.59000E-01 -0.28124E-01 -0.30876E-01  0.00000E+00  0.00000E+00  0.00000E+00    0.12089E+03  0.00000E+00  0.00000E+00 -0.21012E+00  0.23648E+00  0.29906E+00
  0.59999E-01  0.12131E+03    0.60000E-01 -0.28600E-01 -0.31400E-01  0.00000E+00  0.00000E+00  0.00000E+00    0.12130E+03  0.00000E+00  0.00000E+00 -0.20941E+00  0.23862E+00  0.29963E+00
  0.60999E-01  0.12172E+03    0.61000E-01 -0.29075E-01 -0.31925E-01  0.00000E+00  0.00000E+00  0.00000E+00    0.12172E+03  0.00000E+00  0.00000E+00 -0.20839E+00  0.24091E+00  0.30019E+00
  0.61999E-01  0.12214E+03    0.62000E-01 -0.29551E-01 -0.32449E-01  0.00000E+00  0.00000E+00  0.00000E+00    0.12214E+03  0.00000E+00  0.00000E+00 -0.20731E+00  0.24323E+00  0.30076E+00
  0.62999E-01  0.12255E+03    0.63000E-01 -0.30027E-01 -0.32973E-01  0.00000E+00  0.00000E+00  0.00000E+00    0.12255E+03  0.00000E+00  0.00000E+00 -0.20619E+00  0.24556E+00  0.30133E+00
  0.63999E-01  0.12297E+03    0.64000E-01 -0.30503E-01 -0.33497E-01  0.00000E+00  0.00000E+00  0.00000E+00    0.12296E+03  0.00000E+00  0.00000E+00 -0.20504E+00  0.24792E+00  0.30190E+00
  0.64999E-01  0.12337E+03    0.65000E-01 -0.30978E-01 -0.34022E-01  0.00000E+00  0.00000E+00  0.00000E+00    0.12337E+03  0.00000E+00  0.00000E+00 -0.20387E+00  0.25029E+00  0.30247E+00
  0.65999E-01  0.12378E+03    0.66000E-01 -0.31454E-01 -0.34546E-01  0.00000E+00  0.00000E+00  0.00000E+00    0.12378E+03  0.00000E+00  0.00000E+00 -0.20268E+00  0.25268E+00  0.30305E+00
  0.66999E-01  0.12419E+03    0.67000E-01 -0.31930E-01 -0.35070E-01  0.00000E+00  0.00000E+00  0.00000E+00    0.12418E+03  0.00000E+00  0.00000E+00 -0.20146E+00  0.25507E+00  0.30362E+00
  0.67999E-01  0.12459E+03    0.68000E-01 -0.32405E-01 -0.35595E-01  0.00000E+00  0.00000E+00  0.00000E+00    0.12459E+03  0.00000E+00  0.00000E+00 -0.20022E+00  0.25749E+00  0.30420E+00
  0.68999E-01  0.12499E+03    0.69000E-01 -0.32881E-01 -0.36119E-01  0.00000E+00  0.00000E+00  0.00000E+00    0.12499E+03  0.00000E+00  0.00000E+00 -0.19895E+00  0.25992E+00  0.30478E+00
  0.69999E-01  0.12539E+03    0.70000E-01 -0.33357E-01 -0.36643E-01  0.00000E+00  0.00000E+00  0.00000E+00    0.12539E+03  0.00000E+00  0.00000E+00 -0.19767E+00  0.26236E+00  0.30536E+00
  0.70999E-01  0.12579E+03    0.71000E-01 -0.33832E-01 -0.37168E-01  0.00000E+00  0.00000E+00  0.00000E+00    0.12578E+03  0.00000E+00  0.00000E+00 -0.19636E+00  0.26482E+00  0.30594E+00
  0.71999E-01  0.12618E+03    0.72000E-01 -0.34308E-01 -0.37692E-01  0.00000E+00  0.00000E+00  0.00000E+00    0.12618E+03  0.00000E+00  0.00000E+00 -0.19503E+00  0.26729E+00  0.30653E+00
  0.72998E-01  0.12657E+03    0.73000E-01 -0.34783E-01 -0.38217E-01  0.00000E+00  0.00000E+00  0.00000E+00    0.12657E+03  0.00000E+00  0.00000E+00 -0.19368E+00  0.26978E+00  0.30711E+00
  0.73998E-01  0.12696E+03    0.74000E-01 -0.35259E-01 -0.38741E-01  0.00000E+00  0.00000E+00  0.00000E+00    0.12696E+03  0.00000E+00  0.00000E+00 -0.19230E+00  0.27228E+00  0.30771E+00
  0.74998E-01  0.12735E+03    0.75000E-01 -0.35734E-01 -0.39266E-01  0.00000E+00  0.00000E+00  0.00000E+00    0.12735E+03  0.00000E+00  0.00000E+00 -0.19091E+00  0.27480E+00  0.30831E+00
  0.75998E-01  0.12774E+03    0.76000E-01 -0.36209E-01 -0.39791E-01  0.00000E+00  0.00000E+00  0.00000E+00    0.12773E+03  0.00000E+00  0.00000E+00 -0.18949E+00  0.27734E+00  0.30891E+00
  0.76998E-01  0.12812E+03    0.77000E-01 -0.36685E-01 -0.40315E-01  0.00000E+00  0.00000E+00  0.00000E+00    0.12812E+03  0.00000E+00  0.00000E+00 -0.18806E+00  0.27989E+00  0.30951E+00
  0.77998E-01  0.12851E+03    0.78000E-01 -0.37160E-01 -0.40840E-01  0.00000E+00  0.00000E+00  0.00000E+00    0.12850E+03  0.00000E+00  0.00000E+00 -0.17978E+00  0.28554E+00  0.31016E+00
  0.78998E-01  0.12886E+03    0.79000E-01 -0.37635E-01 -0.41365E-01  0.00000E+00  0.00000E+00  0.00000E+00    0.12886E+03  0.00000E+00  0.00000E+00 -0.18008E+00  0.28777E+00  0.31085E+00
  0.79998E-01  0.12923E+03    0.80000E-01 -0.38111E-01 -0.41889E-01  0.00000E+00  0.00000E+00  0.00000E+00    0.12923E+03  0.00000E+00  0.00000E+00 -0.17831E+00  0.29046E+00  0.31150E+00
  0.80998E-01  0.12961E+03    0.81000E-01 -0.38586E-01 -0.42414E-01  0.00000E+00  0.00000E+00  0.00000E+00    0.12961E+03  0.00000E+00  0.00000E+00 -0.17678E+00  0.29310E+00  0.31214E+00
  0.81998E-01  0.12998E+03    0.82000E-01 -0.39061E-01 -0.42939E-01  0.00000E+00  0.00000E+00  0.00000E+00    0.12998E+03  0.00000E+00  0.00000E+00 -0.17524E+00  0.29575E+00  0.31278E+00
  0.82998E-01  0.13040E+03    0.83000E-01 -0.39536E-01 -0.43464E-01  0.00000E+00  0.00000E+00  0.00000E+00    0.13040E+03  0.00000E+00  0.00000E+00 -0.17214E+00  0.29904E+00  0.31335E+00
  0.83998E-01  0.13078E+03    0.84000E-01 -0.40012E-01 -0.43988E-01  0.00000E+00  0.00000E+00  0.00000E+00    0.13078E+03  0.00000E+00  0.00000E+00 -0.17097E+00  0.30164E+00  0.31398E+00
  0.84998E-01  0.13115E+03    0.85000E-01 -0.40487E-01 -0.44513E-01  0.00000E+00  0.00000E+00  0.00000E+00    0.13115E+03  0.00000E+00  0.00000E+00 -0.16937E+00  0.30435E+00  0.31463E+00
  0.85998E-01  0.13152E+03    0.86000E-01 -0.40962E-01 -0.45038E-01  0.00000E+00  0.00000E+00  0.00000E+00    0.13151E+03  0.00000E+00  0.00000E+00 -0.16775E+00  0.30707E+00  0.31530E+00
  0.86998E-01  0.13188E+03    0.87000E-01 -0.41437E-01 -0.45563E-01  0.00000E+00  0.00000E+00  0.00000E+00    0.13188E+03  0.00000E+00  0.00000E+00 -0.16612E+00  0.30981E+00  0.31597E+00
  0.87998E-01  0.13224E+03    0.88000E-01 -0.41912E-01 -0.46088E-01  0.00000E+00  0.00000E+00  0.00000E+00    0.13224E+03  0.00000E+00  0.00000E+00 -0.16446E+00  0.31257E+00  0.31666E+00
  0.88998E-01  0.13260E+03    0.89000E-01 -0.42387E-01 -0.46613E-01  0.00000E+00  0.00000E+00  0.00000E+00    0.13260E+03  0.00000E+00  0.00000E+00 -0.16279E+00  0.31534E+00  0.31735E+00
  0.89998E-01  0.13296E+03    0.90000E-01 -0.42862E-01 -0.47138E-01  0.00000E+00  0.00000E+00  0.00000E+00    0.13296E+03  0.00000E+00  0.00000E+00 -0.16111E+00  0.31813E+00  0.31805E+00
  0.90998E-01  0.13332E+03    0.91000E-01 -0.43337E-01 -0.47663E-01  0.00000E+00  0.00000E+00  0.00000E+00    0.13332E+03  0.00000E+00  0.00000E+00 -0.15940E+00  0.32094E+00  0.31877E+00
  0.91998E-01  0.13368E+03    0.92000E-01 -0.43812E-01 -0.48188E-01  0.00000E+00  0.00000E+00  0.00000E+00    0.13367E+03  0.00000E+00  0.00000E+00 -0.15768E+00  0.32377E+00  0.31949E+00
  0.92998E-01  0.13403E+03    0.93000E-01 -0.44287E-01 -0.48713E-01  0.00000E+00  0.00000E+00  0.00000E+00    0.13403E+03  0.00000E+00  0.00000E+00 -0.15594E+00  0.32661E+00  0.32023E+00
  0.93998E-01  0.13438E+03    0.94000E-01 -0.44762E-01 -0.49238E-01  0.00000E+00  0.00000E+00  0.00000E+00    0.13438E+03  0.00000E+00  0.00000E+00 -0.15418E+00  0.32948E+00  0.32097E+00
  0.94998E-01  0.13473E+03    0.95000E-01 -0.45237E-01 -0.49763E-01  0.00000E+00  0.00000E+00  0.00000E+00    0.13473E+03  0.00000E+00  0.00000E+00 -0.15241E+00  0.33236E+00  0.32173E+00
  0.95998E-01  0.13508E+03    0.96000E-01 -0.45712E-01 -0.50288E-01  0.00000E+00  0.00000E+00  0.00000E+00    0.13508E+03  0.00000E+00  0.00000E+00 -0.15062E+00  0.33525E+00  0.32250E+00
  0.96998E-01  0.13542E+03    0.97000E-01 -0.46187E-01 -0.50813E-01  0.00000E+00  0.00000E+00  0.00000E+00    0.13542E+03  0.00000E+00  0.00000E+00 -0.14882E+00  0.33817E+00  0.32329E+00
  0.97998E-01  0.13577E+03    0.98000E-01 -0.46661E-01 -0.51339E-01  0.00000E+00  0.00000E+00  0.00000E+00    0.13577E+03  0.00000E+00  0.00000E+00 -0.14700E+00  0.34111E+00  0.32408E+00
  0.98998E-01  0.13611E+03    0.99000E-01 -0.47136E-01 -0.51864E-01  0.00000E+00  0.00000E+00  0.00000E+00    0.13611E+03  0.00000E+00  0.00000E+00 -0.14517E+00  0.34406E+00  0.32489E+00
  0.99998E-01  0.13645E+03    0.10000E+00 -0.47611E-01 -0.52389E-01  0.00000E+00  0.00000E+00  0.00000E+00    0.13645E+03  0.00000E+00  0.00000E+00 -0.14332E+00  0.34704E+00  0.32572E+00
