          Evm          Svm            E11          E22          E33          E23          E13          E12         SCAU11       SCAU22       SCAU33       SCAU23       SCAU13       SCAU12      TEMP
  0.00000E+00  0.11146E+03    0.00000E+00  0.00000E+00  0.00000E+00  0.00000E+00  0.00000E+00  0.00000E+00    0.11146E+03  0.00000E+00  0.00000E+00 -0.25851E+00  0.16027E+00  0.30798E+00
  0.99998E-03  0.11196E+03    0.10000E-02 -0.47967E-03 -0.52033E-03  0.00000E+00  0.00000E+00  0.00000E+00    0.11196E+03  0.00000E+00  0.00000E+00 -0.26262E+00  0.16550E+00  0.31080E+00
  0.20000E-02  0.11254E+03    0.20000E-02 -0.95795E-03 -0.10421E-02  0.00000E+00  0.00000E+00  0.00000E+00    0.11254E+03  0.00000E+00  0.00000E+00 -0.26131E+00  0.16600E+00  0.31358E+00
  0.29999E-02  0.11314E+03    0.30000E-02 -0.14359E-02 -0.15641E-02  0.00000E+00  0.00000E+00  0.00000E+00    0.11314E+03  0.00000E+00  0.00000E+00 -0.26218E+00  0.16734E+00  0.31516E+00
  0.39999E-02  0.11372E+03    0.40000E-02 -0.19135E-02 -0.20865E-02  0.00000E+00  0.00000E+00  0.00000E+00    0.11372E+03  0.00000E+00  0.00000E+00 -0.26293E+00  0.16864E+00  0.31632E+00
  0.49999E-02  0.11431E+03    0.50000E-02 -0.23911E-02 -0.26089E-02  0.00000E+00  0.00000E+00  0.00000E+00    0.11430E+03  0.00000E+00  0.00000E+00 -0.26361E+00  0.16997E+00  0.31735E+00
  0.59999E-02  0.11488E+03    0.60000E-02 -0.28685E-02 -0.31315E-02  0.00000E+00  0.00000E+00  0.00000E+00    0.11488E+03  0.00000E+00  0.00000E+00 -0.26425E+00  0.17134E+00  0.31831E+00
  0.69998E-02  0.11546E+03    0.70000E-02 -0.33457E-02 -0.36543E-02  0.00000E+00  0.00000E+00  0.00000E+00    0.11546E+03  0.00000E+00  0.00000E+00 -0.26484E+00  0.17275E+00  0.31922E+00
  0.79998E-02  0.11603E+03    0.80000E-02 -0.38230E-02 -0.41770E-02  0.00000E+00  0.00000E+00  0.00000E+00    0.11603E+03  0.00000E+00  0.00000E+00 -0.26538E+00  0.17418E+00  0.32008E+00
  0.89998E-02  0.11660E+03    0.90000E-02 -0.43001E-02 -0.46999E-02  0.00000E+00  0.00000E+00  0.00000E+00    0.11659E+03  0.00000E+00  0.00000E+00 -0.26588E+00  0.17565E+00  0.32090E+00
  0.99998E-02  0.11716E+03    0.10000E-01 -0.47773E-02 -0.52227E-02  0.00000E+00  0.00000E+00  0.00000E+00    0.11716E+03  0.00000E+00  0.00000E+00 -0.26633E+00  0.17714E+00  0.32170E+00
  0.11000E-01  0.11772E+03    0.11000E-01 -0.52543E-02 -0.57457E-02  0.00000E+00  0.00000E+00  0.00000E+00    0.11772E+03  0.00000E+00  0.00000E+00 -0.26674E+00  0.17866E+00  0.32248E+00
  0.12000E-01  0.11828E+03    0.12000E-01 -0.57314E-02 -0.62686E-02  0.00000E+00  0.00000E+00  0.00000E+00    0.11828E+03  0.00000E+00  0.00000E+00 -0.26710E+00  0.18020E+00  0.32323E+00
  0.13000E-01  0.11883E+03    0.13000E-01 -0.62084E-02 -0.67916E-02  0.00000E+00  0.00000E+00  0.00000E+00    0.11883E+03  0.00000E+00  0.00000E+00 -0.26742E+00  0.18177E+00  0.32397E+00
  0.14000E-01  0.11938E+03    0.14000E-01 -0.66854E-02 -0.73146E-02  0.00000E+00  0.00000E+00  0.00000E+00    0.11938E+03  0.00000E+00  0.00000E+00 -0.26769E+00  0.18337E+00  0.32469E+00
  0.15000E-01  0.11993E+03    0.15000E-01 -0.71623E-02 -0.78377E-02  0.00000E+00  0.00000E+00  0.00000E+00    0.11993E+03  0.00000E+00  0.00000E+00 -0.26792E+00  0.18499E+00  0.32540E+00
  0.16000E-01  0.12047E+03    0.16000E-01 -0.76393E-02 -0.83607E-02  0.00000E+00  0.00000E+00  0.00000E+00    0.12047E+03  0.00000E+00  0.00000E+00 -0.26810E+00  0.18665E+00  0.32609E+00
  0.17000E-01  0.12096E+03    0.17000E-01 -0.81162E-02 -0.88838E-02  0.00000E+00  0.00000E+00  0.00000E+00    0.12096E+03  0.00000E+00  0.00000E+00 -0.27115E+00  0.18702E+00  0.32668E+00
  0.18000E-01  0.12154E+03    0.18000E-01 -0.85931E-02 -0.94069E-02  0.00000E+00  0.00000E+00  0.00000E+00    0.12154E+03  0.00000E+00  0.00000E+00 -0.26850E+00  0.18980E+00  0.32744E+00
  0.19000E-01  0.12204E+03    0.19000E-01 -0.90699E-02 -0.99301E-02  0.00000E+00  0.00000E+00  0.00000E+00    0.12203E+03  0.00000E+00  0.00000E+00 -0.27135E+00  0.19041E+00  0.32801E+00
  0.20000E-01  0.12260E+03    0.20000E-01 -0.95468E-02 -0.10453E-01  0.00000E+00  0.00000E+00  0.00000E+00    0.12260E+03  0.00000E+00  0.00000E+00 -0.26858E+00  0.19327E+00  0.32873E+00
  0.21000E-01  0.12309E+03    0.21000E-01 -0.10024E-01 -0.10976E-01  0.00000E+00  0.00000E+00  0.00000E+00    0.12309E+03  0.00000E+00  0.00000E+00 -0.27136E+00  0.19390E+00  0.32932E+00
  0.22000E-01  0.12365E+03    0.22000E-01 -0.10500E-01 -0.11500E-01  0.00000E+00  0.00000E+00  0.00000E+00    0.12365E+03  0.00000E+00  0.00000E+00 -0.26849E+00  0.19683E+00  0.33000E+00
  0.22999E-01  0.12414E+03    0.23000E-01 -0.10977E-01 -0.12023E-01  0.00000E+00  0.00000E+00  0.00000E+00    0.12414E+03  0.00000E+00  0.00000E+00 -0.27119E+00  0.19749E+00  0.33059E+00
  0.23999E-01  0.12469E+03    0.24000E-01 -0.11454E-01 -0.12546E-01  0.00000E+00  0.00000E+00  0.00000E+00    0.12469E+03  0.00000E+00  0.00000E+00 -0.26824E+00  0.20049E+00  0.33123E+00
  0.24999E-01  0.12518E+03    0.25000E-01 -0.11931E-01 -0.13069E-01  0.00000E+00  0.00000E+00  0.00000E+00    0.12517E+03  0.00000E+00  0.00000E+00 -0.27087E+00  0.20117E+00  0.33182E+00
  0.25999E-01  0.12572E+03    0.26000E-01 -0.12407E-01 -0.13593E-01  0.00000E+00  0.00000E+00  0.00000E+00    0.12572E+03  0.00000E+00  0.00000E+00 -0.26782E+00  0.20424E+00  0.33242E+00
  0.26999E-01  0.12620E+03    0.27000E-01 -0.12884E-01 -0.14116E-01  0.00000E+00  0.00000E+00  0.00000E+00    0.12620E+03  0.00000E+00  0.00000E+00 -0.27039E+00  0.20494E+00  0.33302E+00
  0.27999E-01  0.12674E+03    0.28000E-01 -0.13361E-01 -0.14639E-01  0.00000E+00  0.00000E+00  0.00000E+00    0.12673E+03  0.00000E+00  0.00000E+00 -0.26724E+00  0.20809E+00  0.33360E+00
  0.28999E-01  0.12721E+03    0.29000E-01 -0.13837E-01 -0.15163E-01  0.00000E+00  0.00000E+00  0.00000E+00    0.12721E+03  0.00000E+00  0.00000E+00 -0.26974E+00  0.20881E+00  0.33419E+00
  0.29999E-01  0.12774E+03    0.30000E-01 -0.14314E-01 -0.15686E-01  0.00000E+00  0.00000E+00  0.00000E+00    0.12774E+03  0.00000E+00  0.00000E+00 -0.26652E+00  0.21202E+00  0.33474E+00
  0.30999E-01  0.12821E+03    0.31000E-01 -0.14791E-01 -0.16209E-01  0.00000E+00  0.00000E+00  0.00000E+00    0.12821E+03  0.00000E+00  0.00000E+00 -0.26895E+00  0.21275E+00  0.33534E+00
  0.31999E-01  0.12873E+03    0.32000E-01 -0.15267E-01 -0.16733E-01  0.00000E+00  0.00000E+00  0.00000E+00    0.12873E+03  0.00000E+00  0.00000E+00 -0.26565E+00  0.21605E+00  0.33585E+00
  0.32999E-01  0.12919E+03    0.33000E-01 -0.15744E-01 -0.17256E-01  0.00000E+00  0.00000E+00  0.00000E+00    0.12919E+03  0.00000E+00  0.00000E+00 -0.26801E+00  0.21680E+00  0.33647E+00
  0.33999E-01  0.12967E+03    0.34000E-01 -0.16220E-01 -0.17780E-01  0.00000E+00  0.00000E+00  0.00000E+00    0.12967E+03  0.00000E+00  0.00000E+00 -0.26787E+00  0.21866E+00  0.33700E+00
  0.34999E-01  0.13017E+03    0.35000E-01 -0.16697E-01 -0.18303E-01  0.00000E+00  0.00000E+00  0.00000E+00    0.13017E+03  0.00000E+00  0.00000E+00 -0.26702E+00  0.22083E+00  0.33757E+00
  0.35999E-01  0.13064E+03    0.36000E-01 -0.17173E-01 -0.18827E-01  0.00000E+00  0.00000E+00  0.00000E+00    0.13064E+03  0.00000E+00  0.00000E+00 -0.26673E+00  0.22282E+00  0.33807E+00
  0.36999E-01  0.13113E+03    0.37000E-01 -0.17650E-01 -0.19350E-01  0.00000E+00  0.00000E+00  0.00000E+00    0.13113E+03  0.00000E+00  0.00000E+00 -0.26579E+00  0.22504E+00  0.33864E+00
  0.37999E-01  0.13160E+03    0.38000E-01 -0.18126E-01 -0.19874E-01  0.00000E+00  0.00000E+00  0.00000E+00    0.13160E+03  0.00000E+00  0.00000E+00 -0.26544E+00  0.22706E+00  0.33914E+00
  0.38999E-01  0.13207E+03    0.39000E-01 -0.18602E-01 -0.20398E-01  0.00000E+00  0.00000E+00  0.00000E+00    0.13207E+03  0.00000E+00  0.00000E+00 -0.26480E+00  0.22920E+00  0.33966E+00
  0.39999E-01  0.13256E+03    0.40000E-01 -0.19079E-01 -0.20921E-01  0.00000E+00  0.00000E+00  0.00000E+00    0.13256E+03  0.00000E+00  0.00000E+00 -0.26369E+00  0.23151E+00  0.34023E+00
  0.40999E-01  0.13302E+03    0.41000E-01 -0.19555E-01 -0.21445E-01  0.00000E+00  0.00000E+00  0.00000E+00    0.13301E+03  0.00000E+00  0.00000E+00 -0.26324E+00  0.23358E+00  0.34072E+00
  0.41999E-01  0.13348E+03    0.42000E-01 -0.20031E-01 -0.21969E-01  0.00000E+00  0.00000E+00  0.00000E+00    0.13348E+03  0.00000E+00  0.00000E+00 -0.26250E+00  0.23577E+00  0.34123E+00
  0.42999E-01  0.13395E+03    0.43000E-01 -0.20508E-01 -0.22492E-01  0.00000E+00  0.00000E+00  0.00000E+00    0.13394E+03  0.00000E+00  0.00000E+00 -0.26168E+00  0.23801E+00  0.34175E+00
  0.43999E-01  0.13441E+03    0.44000E-01 -0.20984E-01 -0.23016E-01  0.00000E+00  0.00000E+00  0.00000E+00    0.13440E+03  0.00000E+00  0.00000E+00 -0.26082E+00  0.24026E+00  0.34226E+00
  0.44999E-01  0.13487E+03    0.45000E-01 -0.21460E-01 -0.23540E-01  0.00000E+00  0.00000E+00  0.00000E+00    0.13486E+03  0.00000E+00  0.00000E+00 -0.25992E+00  0.24253E+00  0.34276E+00
  0.45999E-01  0.13532E+03    0.46000E-01 -0.21936E-01 -0.24064E-01  0.00000E+00  0.00000E+00  0.00000E+00    0.13532E+03  0.00000E+00  0.00000E+00 -0.25899E+00  0.24482E+00  0.34327E+00
  0.46999E-01  0.13578E+03    0.47000E-01 -0.22412E-01 -0.24588E-01  0.00000E+00  0.00000E+00  0.00000E+00    0.13577E+03  0.00000E+00  0.00000E+00 -0.25804E+00  0.24712E+00  0.34378E+00
  0.47999E-01  0.13623E+03    0.48000E-01 -0.22889E-01 -0.25111E-01  0.00000E+00  0.00000E+00  0.00000E+00    0.13622E+03  0.00000E+00  0.00000E+00 -0.25705E+00  0.24944E+00  0.34428E+00
  0.48999E-01  0.13668E+03    0.49000E-01 -0.23365E-01 -0.25635E-01  0.00000E+00  0.00000E+00  0.00000E+00    0.13667E+03  0.00000E+00  0.00000E+00 -0.25603E+00  0.25179E+00  0.34479E+00
  0.49999E-01  0.13712E+03    0.50000E-01 -0.23841E-01 -0.26159E-01  0.00000E+00  0.00000E+00  0.00000E+00    0.13712E+03  0.00000E+00  0.00000E+00 -0.25498E+00  0.25415E+00  0.34528E+00
  0.50999E-01  0.13757E+03    0.51000E-01 -0.24317E-01 -0.26683E-01  0.00000E+00  0.00000E+00  0.00000E+00    0.13756E+03  0.00000E+00  0.00000E+00 -0.25390E+00  0.25653E+00  0.34578E+00
  0.51999E-01  0.13801E+03    0.52000E-01 -0.24793E-01 -0.27207E-01  0.00000E+00  0.00000E+00  0.00000E+00    0.13801E+03  0.00000E+00  0.00000E+00 -0.25280E+00  0.25893E+00  0.34628E+00
  0.52999E-01  0.13845E+03    0.53000E-01 -0.25269E-01 -0.27731E-01  0.00000E+00  0.00000E+00  0.00000E+00    0.13844E+03  0.00000E+00  0.00000E+00 -0.25167E+00  0.26135E+00  0.34677E+00
  0.53999E-01  0.13888E+03    0.54000E-01 -0.25745E-01 -0.28255E-01  0.00000E+00  0.00000E+00  0.00000E+00    0.13888E+03  0.00000E+00  0.00000E+00 -0.25051E+00  0.26379E+00  0.34727E+00
  0.54999E-01  0.13932E+03    0.55000E-01 -0.26221E-01 -0.28779E-01  0.00000E+00  0.00000E+00  0.00000E+00    0.13931E+03  0.00000E+00  0.00000E+00 -0.24932E+00  0.26623E+00  0.34777E+00
  0.55999E-01  0.13975E+03    0.56000E-01 -0.26697E-01 -0.29303E-01  0.00000E+00  0.00000E+00  0.00000E+00    0.13975E+03  0.00000E+00  0.00000E+00 -0.24810E+00  0.26870E+00  0.34826E+00
  0.56999E-01  0.14018E+03    0.57000E-01 -0.27173E-01 -0.29827E-01  0.00000E+00  0.00000E+00  0.00000E+00    0.14018E+03  0.00000E+00  0.00000E+00 -0.24685E+00  0.27118E+00  0.34876E+00
  0.57999E-01  0.14061E+03    0.58000E-01 -0.27648E-01 -0.30352E-01  0.00000E+00  0.00000E+00  0.00000E+00    0.14060E+03  0.00000E+00  0.00000E+00 -0.24558E+00  0.27369E+00  0.34925E+00
  0.58999E-01  0.14103E+03    0.59000E-01 -0.28124E-01 -0.30876E-01  0.00000E+00  0.00000E+00  0.00000E+00    0.14103E+03  0.00000E+00  0.00000E+00 -0.24428E+00  0.27620E+00  0.34975E+00
  0.59999E-01  0.14145E+03    0.60000E-01 -0.28600E-01 -0.31400E-01  0.00000E+00  0.00000E+00  0.00000E+00    0.14145E+03  0.00000E+00  0.00000E+00 -0.24296E+00  0.27874E+00  0.35025E+00
  0.60999E-01  0.14187E+03    0.61000E-01 -0.29076E-01 -0.31924E-01  0.00000E+00  0.00000E+00  0.00000E+00    0.14187E+03  0.00000E+00  0.00000E+00 -0.24160E+00  0.28129E+00  0.35075E+00
  0.61999E-01  0.14230E+03    0.62000E-01 -0.29552E-01 -0.32448E-01  0.00000E+00  0.00000E+00  0.00000E+00    0.14230E+03  0.00000E+00  0.00000E+00 -0.23332E+00  0.28658E+00  0.35134E+00
  0.62999E-01  0.14274E+03    0.63000E-01 -0.30027E-01 -0.32973E-01  0.00000E+00  0.00000E+00  0.00000E+00    0.14274E+03  0.00000E+00  0.00000E+00 -0.23227E+00  0.28942E+00  0.35183E+00
  0.63999E-01  0.14316E+03    0.64000E-01 -0.30503E-01 -0.33497E-01  0.00000E+00  0.00000E+00  0.00000E+00    0.14316E+03  0.00000E+00  0.00000E+00 -0.23093E+00  0.29206E+00  0.35232E+00
  0.64999E-01  0.14357E+03    0.65000E-01 -0.30979E-01 -0.34021E-01  0.00000E+00  0.00000E+00  0.00000E+00    0.14357E+03  0.00000E+00  0.00000E+00 -0.22946E+00  0.29472E+00  0.35283E+00
  0.65999E-01  0.14398E+03    0.66000E-01 -0.31454E-01 -0.34546E-01  0.00000E+00  0.00000E+00  0.00000E+00    0.14397E+03  0.00000E+00  0.00000E+00 -0.22798E+00  0.29739E+00  0.35333E+00
  0.66999E-01  0.14438E+03    0.67000E-01 -0.31930E-01 -0.35070E-01  0.00000E+00  0.00000E+00  0.00000E+00    0.14438E+03  0.00000E+00  0.00000E+00 -0.22647E+00  0.30007E+00  0.35384E+00
  0.67999E-01  0.14479E+03    0.68000E-01 -0.32406E-01 -0.35594E-01  0.00000E+00  0.00000E+00  0.00000E+00    0.14478E+03  0.00000E+00  0.00000E+00 -0.22494E+00  0.30277E+00  0.35436E+00
  0.68999E-01  0.14519E+03    0.69000E-01 -0.32881E-01 -0.36119E-01  0.00000E+00  0.00000E+00  0.00000E+00    0.14519E+03  0.00000E+00  0.00000E+00 -0.22339E+00  0.30549E+00  0.35487E+00
  0.69999E-01  0.14559E+03    0.70000E-01 -0.33357E-01 -0.36643E-01  0.00000E+00  0.00000E+00  0.00000E+00    0.14559E+03  0.00000E+00  0.00000E+00 -0.22182E+00  0.30822E+00  0.35540E+00
  0.70999E-01  0.14599E+03    0.71000E-01 -0.33832E-01 -0.37168E-01  0.00000E+00  0.00000E+00  0.00000E+00    0.14598E+03  0.00000E+00  0.00000E+00 -0.22022E+00  0.31097E+00  0.35592E+00
  0.71998E-01  0.14638E+03    0.72000E-01 -0.34308E-01 -0.37692E-01  0.00000E+00  0.00000E+00  0.00000E+00    0.14638E+03  0.00000E+00  0.00000E+00 -0.21859E+00  0.31373E+00  0.35645E+00
  0.72998E-01  0.14677E+03    0.73000E-01 -0.34783E-01 -0.38217E-01  0.00000E+00  0.00000E+00  0.00000E+00    0.14677E+03  0.00000E+00  0.00000E+00 -0.21695E+00  0.31651E+00  0.35698E+00
  0.73998E-01  0.14717E+03    0.74000E-01 -0.35258E-01 -0.38742E-01  0.00000E+00  0.00000E+00  0.00000E+00    0.14716E+03  0.00000E+00  0.00000E+00 -0.21528E+00  0.31931E+00  0.35752E+00
  0.74998E-01  0.14756E+03    0.75000E-01 -0.35734E-01 -0.39266E-01  0.00000E+00  0.00000E+00  0.00000E+00    0.14755E+03  0.00000E+00  0.00000E+00 -0.21359E+00  0.32212E+00  0.35807E+00
  0.75998E-01  0.14794E+03    0.76000E-01 -0.36209E-01 -0.39791E-01  0.00000E+00  0.00000E+00  0.00000E+00    0.14794E+03  0.00000E+00  0.00000E+00 -0.21188E+00  0.32495E+00  0.35862E+00
  0.76998E-01  0.14833E+03    0.77000E-01 -0.36684E-01 -0.40316E-01  0.00000E+00  0.00000E+00  0.00000E+00    0.14832E+03  0.00000E+00  0.00000E+00 -0.21015E+00  0.32780E+00  0.35918E+00
  0.77998E-01  0.14871E+03    0.78000E-01 -0.37160E-01 -0.40840E-01  0.00000E+00  0.00000E+00  0.00000E+00    0.14871E+03  0.00000E+00  0.00000E+00 -0.20840E+00  0.33066E+00  0.35975E+00
  0.78998E-01  0.14909E+03    0.79000E-01 -0.37635E-01 -0.41365E-01  0.00000E+00  0.00000E+00  0.00000E+00    0.14909E+03  0.00000E+00  0.00000E+00 -0.20662E+00  0.33354E+00  0.36032E+00
  0.79998E-01  0.14947E+03    0.80000E-01 -0.38110E-01 -0.41890E-01  0.00000E+00  0.00000E+00  0.00000E+00    0.14947E+03  0.00000E+00  0.00000E+00 -0.20482E+00  0.33644E+00  0.36090E+00
  0.80998E-01  0.14985E+03    0.81000E-01 -0.38586E-01 -0.42414E-01  0.00000E+00  0.00000E+00  0.00000E+00    0.14985E+03  0.00000E+00  0.00000E+00 -0.20301E+00  0.33935E+00  0.36149E+00
  0.81998E-01  0.15022E+03    0.82000E-01 -0.39061E-01 -0.42939E-01  0.00000E+00  0.00000E+00  0.00000E+00    0.15022E+03  0.00000E+00  0.00000E+00 -0.20117E+00  0.34229E+00  0.36209E+00
  0.82998E-01  0.15060E+03    0.83000E-01 -0.39536E-01 -0.43464E-01  0.00000E+00  0.00000E+00  0.00000E+00    0.15059E+03  0.00000E+00  0.00000E+00 -0.19931E+00  0.34524E+00  0.36269E+00
  0.83998E-01  0.15097E+03    0.84000E-01 -0.40011E-01 -0.43989E-01  0.00000E+00  0.00000E+00  0.00000E+00    0.15097E+03  0.00000E+00  0.00000E+00 -0.19744E+00  0.34820E+00  0.36331E+00
  0.84998E-01  0.15134E+03    0.85000E-01 -0.40486E-01 -0.44514E-01  0.00000E+00  0.00000E+00  0.00000E+00    0.15134E+03  0.00000E+00  0.00000E+00 -0.19554E+00  0.35119E+00  0.36394E+00
  0.85998E-01  0.15171E+03    0.86000E-01 -0.40961E-01 -0.45039E-01  0.00000E+00  0.00000E+00  0.00000E+00    0.15170E+03  0.00000E+00  0.00000E+00 -0.19363E+00  0.35419E+00  0.36457E+00
  0.86998E-01  0.15207E+03    0.87000E-01 -0.41436E-01 -0.45564E-01  0.00000E+00  0.00000E+00  0.00000E+00    0.15207E+03  0.00000E+00  0.00000E+00 -0.19169E+00  0.35722E+00  0.36522E+00
  0.87998E-01  0.15244E+03    0.88000E-01 -0.41911E-01 -0.46089E-01  0.00000E+00  0.00000E+00  0.00000E+00    0.15243E+03  0.00000E+00  0.00000E+00 -0.18974E+00  0.36026E+00  0.36588E+00
  0.88998E-01  0.15280E+03    0.89000E-01 -0.42386E-01 -0.46614E-01  0.00000E+00  0.00000E+00  0.00000E+00    0.15280E+03  0.00000E+00  0.00000E+00 -0.18777E+00  0.36332E+00  0.36655E+00
  0.89998E-01  0.15316E+03    0.90000E-01 -0.42861E-01 -0.47139E-01  0.00000E+00  0.00000E+00  0.00000E+00    0.15316E+03  0.00000E+00  0.00000E+00 -0.18578E+00  0.36640E+00  0.36723E+00
  0.90998E-01  0.15352E+03    0.91000E-01 -0.43336E-01 -0.47664E-01  0.00000E+00  0.00000E+00  0.00000E+00    0.15351E+03  0.00000E+00  0.00000E+00 -0.18377E+00  0.36950E+00  0.36792E+00
  0.91998E-01  0.15387E+03    0.92000E-01 -0.43811E-01 -0.48189E-01  0.00000E+00  0.00000E+00  0.00000E+00    0.15387E+03  0.00000E+00  0.00000E+00 -0.18175E+00  0.37261E+00  0.36863E+00
  0.92998E-01  0.15423E+03    0.93000E-01 -0.44286E-01 -0.48714E-01  0.00000E+00  0.00000E+00  0.00000E+00    0.15423E+03  0.00000E+00  0.00000E+00 -0.17971E+00  0.37575E+00  0.36935E+00
  0.93998E-01  0.15458E+03    0.94000E-01 -0.44761E-01 -0.49239E-01  0.00000E+00  0.00000E+00  0.00000E+00    0.15458E+03  0.00000E+00  0.00000E+00 -0.17765E+00  0.37891E+00  0.37008E+00
  0.94998E-01  0.15493E+03    0.95000E-01 -0.45236E-01 -0.49764E-01  0.00000E+00  0.00000E+00  0.00000E+00    0.15493E+03  0.00000E+00  0.00000E+00 -0.17557E+00  0.38209E+00  0.37083E+00
  0.95998E-01  0.15528E+03    0.96000E-01 -0.45711E-01 -0.50289E-01  0.00000E+00  0.00000E+00  0.00000E+00    0.15528E+03  0.00000E+00  0.00000E+00 -0.17348E+00  0.38528E+00  0.37159E+00
  0.96998E-01  0.15563E+03    0.97000E-01 -0.46186E-01 -0.50814E-01  0.00000E+00  0.00000E+00  0.00000E+00    0.15563E+03  0.00000E+00  0.00000E+00 -0.17137E+00  0.38850E+00  0.37237E+00
  0.97998E-01  0.15598E+03    0.98000E-01 -0.46661E-01 -0.51339E-01  0.00000E+00  0.00000E+00  0.00000E+00    0.15598E+03  0.00000E+00  0.00000E+00 -0.16925E+00  0.39174E+00  0.37316E+00
  0.98998E-01  0.15632E+03    0.99000E-01 -0.47135E-01 -0.51865E-01  0.00000E+00  0.00000E+00  0.00000E+00    0.15632E+03  0.00000E+00  0.00000E+00 -0.16711E+00  0.39500E+00  0.37397E+00
  0.99998E-01  0.15667E+03    0.10000E+00 -0.47610E-01 -0.52390E-01  0.00000E+00  0.00000E+00  0.00000E+00    0.15666E+03  0.00000E+00  0.00000E+00 -0.16496E+00  0.39828E+00  0.37479E+00
