          Evm          Svm            E11          E22          E33          E23          E13          E12         SCAU11       SCAU22       SCAU33       SCAU23       SCAU13       SCAU12      TEMP
  0.00000E+00  0.84045E+02    0.00000E+00  0.00000E+00  0.00000E+00  0.00000E+00  0.00000E+00  0.00000E+00    0.84043E+02  0.00000E+00  0.00000E+00 -0.19493E+00  0.12085E+00  0.23223E+00
  0.99998E-03  0.84608E+02    0.10000E-02 -0.47967E-03 -0.52033E-03  0.00000E+00  0.00000E+00  0.00000E+00    0.84606E+02  0.00000E+00  0.00000E+00 -0.19936E+00  0.12378E+00  0.23535E+00
  0.20000E-02  0.85139E+02    0.20000E-02 -0.95784E-03 -0.10422E-02  0.00000E+00  0.00000E+00  0.00000E+00    0.85137E+02  0.00000E+00  0.00000E+00 -0.19972E+00  0.12481E+00  0.23744E+00
  0.29999E-02  0.85726E+02    0.30000E-02 -0.14356E-02 -0.15644E-02  0.00000E+00  0.00000E+00  0.00000E+00    0.85724E+02  0.00000E+00  0.00000E+00 -0.20082E+00  0.12594E+00  0.23890E+00
  0.39999E-02  0.86310E+02    0.40000E-02 -0.19132E-02 -0.20868E-02  0.00000E+00  0.00000E+00  0.00000E+00    0.86308E+02  0.00000E+00  0.00000E+00 -0.20178E+00  0.12710E+00  0.24011E+00
  0.49999E-02  0.86891E+02    0.50000E-02 -0.23906E-02 -0.26094E-02  0.00000E+00  0.00000E+00  0.00000E+00    0.86889E+02  0.00000E+00  0.00000E+00 -0.20270E+00  0.12828E+00  0.24122E+00
  0.59999E-02  0.87458E+02    0.60000E-02 -0.28678E-02 -0.31322E-02  0.00000E+00  0.00000E+00  0.00000E+00    0.87456E+02  0.00000E+00  0.00000E+00 -0.20164E+00  0.13031E+00  0.24229E+00
  0.69998E-02  0.88039E+02    0.70000E-02 -0.33451E-02 -0.36549E-02  0.00000E+00  0.00000E+00  0.00000E+00    0.88037E+02  0.00000E+00  0.00000E+00 -0.20248E+00  0.13168E+00  0.24331E+00
  0.79998E-02  0.88610E+02    0.80000E-02 -0.38222E-02 -0.41778E-02  0.00000E+00  0.00000E+00  0.00000E+00    0.88608E+02  0.00000E+00  0.00000E+00 -0.20327E+00  0.13295E+00  0.24429E+00
  0.89998E-02  0.89176E+02    0.90000E-02 -0.42993E-02 -0.47007E-02  0.00000E+00  0.00000E+00  0.00000E+00    0.89174E+02  0.00000E+00  0.00000E+00 -0.20400E+00  0.13424E+00  0.24524E+00
  0.99998E-02  0.89739E+02    0.10000E-01 -0.47764E-02 -0.52236E-02  0.00000E+00  0.00000E+00  0.00000E+00    0.89737E+02  0.00000E+00  0.00000E+00 -0.20469E+00  0.13555E+00  0.24617E+00
  0.11000E-01  0.90299E+02    0.11000E-01 -0.52535E-02 -0.57465E-02  0.00000E+00  0.00000E+00  0.00000E+00    0.90297E+02  0.00000E+00  0.00000E+00 -0.20534E+00  0.13689E+00  0.24708E+00
  0.12000E-01  0.90855E+02    0.12000E-01 -0.57305E-02 -0.62695E-02  0.00000E+00  0.00000E+00  0.00000E+00    0.90853E+02  0.00000E+00  0.00000E+00 -0.20596E+00  0.13824E+00  0.24797E+00
  0.13000E-01  0.91408E+02    0.13000E-01 -0.62075E-02 -0.67925E-02  0.00000E+00  0.00000E+00  0.00000E+00    0.91406E+02  0.00000E+00  0.00000E+00 -0.20652E+00  0.13961E+00  0.24885E+00
  0.14000E-01  0.91958E+02    0.14000E-01 -0.66845E-02 -0.73155E-02  0.00000E+00  0.00000E+00  0.00000E+00    0.91956E+02  0.00000E+00  0.00000E+00 -0.20705E+00  0.14101E+00  0.24972E+00
  0.15000E-01  0.92504E+02    0.15000E-01 -0.71614E-02 -0.78386E-02  0.00000E+00  0.00000E+00  0.00000E+00    0.92502E+02  0.00000E+00  0.00000E+00 -0.20754E+00  0.14243E+00  0.25057E+00
  0.16000E-01  0.93047E+02    0.16000E-01 -0.76384E-02 -0.83616E-02  0.00000E+00  0.00000E+00  0.00000E+00    0.93045E+02  0.00000E+00  0.00000E+00 -0.20798E+00  0.14387E+00  0.25141E+00
  0.17000E-01  0.93586E+02    0.17000E-01 -0.81153E-02 -0.88847E-02  0.00000E+00  0.00000E+00  0.00000E+00    0.93584E+02  0.00000E+00  0.00000E+00 -0.20839E+00  0.14534E+00  0.25224E+00
  0.18000E-01  0.94122E+02    0.18000E-01 -0.85922E-02 -0.94078E-02  0.00000E+00  0.00000E+00  0.00000E+00    0.94120E+02  0.00000E+00  0.00000E+00 -0.20876E+00  0.14682E+00  0.25307E+00
  0.19000E-01  0.94656E+02    0.19000E-01 -0.90690E-02 -0.99310E-02  0.00000E+00  0.00000E+00  0.00000E+00    0.94653E+02  0.00000E+00  0.00000E+00 -0.20909E+00  0.14833E+00  0.25387E+00
  0.20000E-01  0.95185E+02    0.20000E-01 -0.95459E-02 -0.10454E-01  0.00000E+00  0.00000E+00  0.00000E+00    0.95183E+02  0.00000E+00  0.00000E+00 -0.20938E+00  0.14985E+00  0.25467E+00
  0.21000E-01  0.95712E+02    0.21000E-01 -0.10023E-01 -0.10977E-01  0.00000E+00  0.00000E+00  0.00000E+00    0.95710E+02  0.00000E+00  0.00000E+00 -0.20963E+00  0.15140E+00  0.25546E+00
  0.22000E-01  0.96236E+02    0.22000E-01 -0.10500E-01 -0.11500E-01  0.00000E+00  0.00000E+00  0.00000E+00    0.96234E+02  0.00000E+00  0.00000E+00 -0.20984E+00  0.15297E+00  0.25624E+00
  0.22999E-01  0.96756E+02    0.23000E-01 -0.10976E-01 -0.12024E-01  0.00000E+00  0.00000E+00  0.00000E+00    0.96754E+02  0.00000E+00  0.00000E+00 -0.21002E+00  0.15455E+00  0.25701E+00
  0.23999E-01  0.97273E+02    0.24000E-01 -0.11453E-01 -0.12547E-01  0.00000E+00  0.00000E+00  0.00000E+00    0.97271E+02  0.00000E+00  0.00000E+00 -0.21017E+00  0.15616E+00  0.25777E+00
  0.24999E-01  0.97787E+02    0.25000E-01 -0.11930E-01 -0.13070E-01  0.00000E+00  0.00000E+00  0.00000E+00    0.97785E+02  0.00000E+00  0.00000E+00 -0.21027E+00  0.15779E+00  0.25852E+00
  0.25999E-01  0.98299E+02    0.26000E-01 -0.12406E-01 -0.13594E-01  0.00000E+00  0.00000E+00  0.00000E+00    0.98296E+02  0.00000E+00  0.00000E+00 -0.21033E+00  0.15944E+00  0.25926E+00
  0.26999E-01  0.98807E+02    0.27000E-01 -0.12883E-01 -0.14117E-01  0.00000E+00  0.00000E+00  0.00000E+00    0.98805E+02  0.00000E+00  0.00000E+00 -0.21037E+00  0.16111E+00  0.26000E+00
  0.27999E-01  0.99312E+02    0.28000E-01 -0.13360E-01 -0.14640E-01  0.00000E+00  0.00000E+00  0.00000E+00    0.99310E+02  0.00000E+00  0.00000E+00 -0.21036E+00  0.16280E+00  0.26072E+00
  0.28999E-01  0.99814E+02    0.29000E-01 -0.13836E-01 -0.15164E-01  0.00000E+00  0.00000E+00  0.00000E+00    0.99812E+02  0.00000E+00  0.00000E+00 -0.21032E+00  0.16451E+00  0.26144E+00
  0.29999E-01  0.10031E+03    0.30000E-01 -0.14313E-01 -0.15687E-01  0.00000E+00  0.00000E+00  0.00000E+00    0.10031E+03  0.00000E+00  0.00000E+00 -0.21025E+00  0.16624E+00  0.26215E+00
  0.30999E-01  0.10081E+03    0.31000E-01 -0.14790E-01 -0.16210E-01  0.00000E+00  0.00000E+00  0.00000E+00    0.10081E+03  0.00000E+00  0.00000E+00 -0.21014E+00  0.16798E+00  0.26286E+00
  0.31999E-01  0.10130E+03    0.32000E-01 -0.15266E-01 -0.16734E-01  0.00000E+00  0.00000E+00  0.00000E+00    0.10130E+03  0.00000E+00  0.00000E+00 -0.20999E+00  0.16975E+00  0.26356E+00
  0.32999E-01  0.10179E+03    0.33000E-01 -0.15743E-01 -0.17257E-01  0.00000E+00  0.00000E+00  0.00000E+00    0.10179E+03  0.00000E+00  0.00000E+00 -0.20982E+00  0.17154E+00  0.26425E+00
  0.33999E-01  0.10228E+03    0.34000E-01 -0.16219E-01 -0.17781E-01  0.00000E+00  0.00000E+00  0.00000E+00    0.10228E+03  0.00000E+00  0.00000E+00 -0.20961E+00  0.17334E+00  0.26493E+00
  0.34999E-01  0.10276E+03    0.35000E-01 -0.16696E-01 -0.18304E-01  0.00000E+00  0.00000E+00  0.00000E+00    0.10276E+03  0.00000E+00  0.00000E+00 -0.20937E+00  0.17516E+00  0.26561E+00
  0.35999E-01  0.10325E+03    0.36000E-01 -0.17172E-01 -0.18828E-01  0.00000E+00  0.00000E+00  0.00000E+00    0.10324E+03  0.00000E+00  0.00000E+00 -0.20909E+00  0.17700E+00  0.26628E+00
  0.36999E-01  0.10373E+03    0.37000E-01 -0.17649E-01 -0.19351E-01  0.00000E+00  0.00000E+00  0.00000E+00    0.10372E+03  0.00000E+00  0.00000E+00 -0.20879E+00  0.17886E+00  0.26695E+00
  0.37999E-01  0.10420E+03    0.38000E-01 -0.18125E-01 -0.19875E-01  0.00000E+00  0.00000E+00  0.00000E+00    0.10420E+03  0.00000E+00  0.00000E+00 -0.20845E+00  0.18074E+00  0.26761E+00
  0.38999E-01  0.10468E+03    0.39000E-01 -0.18601E-01 -0.20399E-01  0.00000E+00  0.00000E+00  0.00000E+00    0.10467E+03  0.00000E+00  0.00000E+00 -0.20808E+00  0.18263E+00  0.26826E+00
  0.39999E-01  0.10515E+03    0.40000E-01 -0.19078E-01 -0.20922E-01  0.00000E+00  0.00000E+00  0.00000E+00    0.10514E+03  0.00000E+00  0.00000E+00 -0.20768E+00  0.18454E+00  0.26891E+00
  0.40999E-01  0.10561E+03    0.41000E-01 -0.19554E-01 -0.21446E-01  0.00000E+00  0.00000E+00  0.00000E+00    0.10561E+03  0.00000E+00  0.00000E+00 -0.20725E+00  0.18647E+00  0.26955E+00
  0.41999E-01  0.10608E+03    0.42000E-01 -0.20030E-01 -0.21970E-01  0.00000E+00  0.00000E+00  0.00000E+00    0.10608E+03  0.00000E+00  0.00000E+00 -0.20678E+00  0.18842E+00  0.27019E+00
  0.42999E-01  0.10654E+03    0.43000E-01 -0.20507E-01 -0.22493E-01  0.00000E+00  0.00000E+00  0.00000E+00    0.10654E+03  0.00000E+00  0.00000E+00 -0.20629E+00  0.19038E+00  0.27083E+00
  0.43999E-01  0.10697E+03    0.44000E-01 -0.20983E-01 -0.23017E-01  0.00000E+00  0.00000E+00  0.00000E+00    0.10697E+03  0.00000E+00  0.00000E+00 -0.20881E+00  0.19079E+00  0.27147E+00
  0.44999E-01  0.10746E+03    0.45000E-01 -0.21459E-01 -0.23541E-01  0.00000E+00  0.00000E+00  0.00000E+00    0.10745E+03  0.00000E+00  0.00000E+00 -0.20543E+00  0.19421E+00  0.27205E+00
  0.45999E-01  0.10788E+03    0.46000E-01 -0.21935E-01 -0.24065E-01  0.00000E+00  0.00000E+00  0.00000E+00    0.10788E+03  0.00000E+00  0.00000E+00 -0.20769E+00  0.19475E+00  0.27273E+00
  0.46999E-01  0.10833E+03    0.47000E-01 -0.22412E-01 -0.24588E-01  0.00000E+00  0.00000E+00  0.00000E+00    0.10833E+03  0.00000E+00  0.00000E+00 -0.20716E+00  0.19668E+00  0.27335E+00
  0.47999E-01  0.10878E+03    0.48000E-01 -0.22888E-01 -0.25112E-01  0.00000E+00  0.00000E+00  0.00000E+00    0.10878E+03  0.00000E+00  0.00000E+00 -0.20653E+00  0.19870E+00  0.27397E+00
  0.48999E-01  0.10923E+03    0.49000E-01 -0.23364E-01 -0.25636E-01  0.00000E+00  0.00000E+00  0.00000E+00    0.10923E+03  0.00000E+00  0.00000E+00 -0.20588E+00  0.20074E+00  0.27459E+00
  0.49999E-01  0.10968E+03    0.50000E-01 -0.23840E-01 -0.26160E-01  0.00000E+00  0.00000E+00  0.00000E+00    0.10967E+03  0.00000E+00  0.00000E+00 -0.20519E+00  0.20279E+00  0.27520E+00
  0.50999E-01  0.11012E+03    0.51000E-01 -0.24316E-01 -0.26684E-01  0.00000E+00  0.00000E+00  0.00000E+00    0.11012E+03  0.00000E+00  0.00000E+00 -0.20447E+00  0.20487E+00  0.27582E+00
  0.51999E-01  0.11056E+03    0.52000E-01 -0.24792E-01 -0.27208E-01  0.00000E+00  0.00000E+00  0.00000E+00    0.11056E+03  0.00000E+00  0.00000E+00 -0.20373E+00  0.20695E+00  0.27643E+00
  0.52999E-01  0.11099E+03    0.53000E-01 -0.25268E-01 -0.27732E-01  0.00000E+00  0.00000E+00  0.00000E+00    0.11099E+03  0.00000E+00  0.00000E+00 -0.20296E+00  0.20905E+00  0.27704E+00
  0.53999E-01  0.11145E+03    0.54000E-01 -0.25744E-01 -0.28256E-01  0.00000E+00  0.00000E+00  0.00000E+00    0.11144E+03  0.00000E+00  0.00000E+00 -0.19929E+00  0.21277E+00  0.27751E+00
  0.54999E-01  0.11186E+03    0.55000E-01 -0.26220E-01 -0.28780E-01  0.00000E+00  0.00000E+00  0.00000E+00    0.11186E+03  0.00000E+00  0.00000E+00 -0.20129E+00  0.21338E+00  0.27825E+00
  0.55999E-01  0.11231E+03    0.56000E-01 -0.26696E-01 -0.29304E-01  0.00000E+00  0.00000E+00  0.00000E+00    0.11231E+03  0.00000E+00  0.00000E+00 -0.19763E+00  0.21708E+00  0.27871E+00
  0.56999E-01  0.11272E+03    0.57000E-01 -0.27172E-01 -0.29828E-01  0.00000E+00  0.00000E+00  0.00000E+00    0.11272E+03  0.00000E+00  0.00000E+00 -0.19957E+00  0.21770E+00  0.27945E+00
  0.57999E-01  0.11313E+03    0.58000E-01 -0.27648E-01 -0.30352E-01  0.00000E+00  0.00000E+00  0.00000E+00    0.11313E+03  0.00000E+00  0.00000E+00 -0.19907E+00  0.21965E+00  0.28002E+00
  0.58999E-01  0.11357E+03    0.59000E-01 -0.28124E-01 -0.30876E-01  0.00000E+00  0.00000E+00  0.00000E+00    0.11357E+03  0.00000E+00  0.00000E+00 -0.19782E+00  0.22198E+00  0.28064E+00
  0.59999E-01  0.11398E+03    0.60000E-01 -0.28600E-01 -0.31400E-01  0.00000E+00  0.00000E+00  0.00000E+00    0.11397E+03  0.00000E+00  0.00000E+00 -0.19721E+00  0.22404E+00  0.28122E+00
  0.60999E-01  0.11441E+03    0.61000E-01 -0.29075E-01 -0.31925E-01  0.00000E+00  0.00000E+00  0.00000E+00    0.11440E+03  0.00000E+00  0.00000E+00 -0.19590E+00  0.22641E+00  0.28183E+00
  0.61999E-01  0.11481E+03    0.62000E-01 -0.29551E-01 -0.32449E-01  0.00000E+00  0.00000E+00  0.00000E+00    0.11481E+03  0.00000E+00  0.00000E+00 -0.19524E+00  0.22850E+00  0.28241E+00
  0.62999E-01  0.11524E+03    0.63000E-01 -0.30027E-01 -0.32973E-01  0.00000E+00  0.00000E+00  0.00000E+00    0.11523E+03  0.00000E+00  0.00000E+00 -0.19388E+00  0.23090E+00  0.28302E+00
  0.63999E-01  0.11564E+03    0.64000E-01 -0.30503E-01 -0.33497E-01  0.00000E+00  0.00000E+00  0.00000E+00    0.11563E+03  0.00000E+00  0.00000E+00 -0.19317E+00  0.23301E+00  0.28361E+00
  0.64999E-01  0.11606E+03    0.65000E-01 -0.30978E-01 -0.34022E-01  0.00000E+00  0.00000E+00  0.00000E+00    0.11605E+03  0.00000E+00  0.00000E+00 -0.19177E+00  0.23545E+00  0.28421E+00
  0.65999E-01  0.11645E+03    0.66000E-01 -0.31454E-01 -0.34546E-01  0.00000E+00  0.00000E+00  0.00000E+00    0.11645E+03  0.00000E+00  0.00000E+00 -0.19101E+00  0.23758E+00  0.28480E+00
  0.66999E-01  0.11687E+03    0.67000E-01 -0.31930E-01 -0.35070E-01  0.00000E+00  0.00000E+00  0.00000E+00    0.11687E+03  0.00000E+00  0.00000E+00 -0.18956E+00  0.24005E+00  0.28540E+00
  0.67999E-01  0.11726E+03    0.68000E-01 -0.32405E-01 -0.35595E-01  0.00000E+00  0.00000E+00  0.00000E+00    0.11726E+03  0.00000E+00  0.00000E+00 -0.18876E+00  0.24221E+00  0.28600E+00
  0.68999E-01  0.11766E+03    0.69000E-01 -0.32881E-01 -0.36119E-01  0.00000E+00  0.00000E+00  0.00000E+00    0.11765E+03  0.00000E+00  0.00000E+00 -0.18766E+00  0.24453E+00  0.28660E+00
  0.69999E-01  0.11805E+03    0.70000E-01 -0.33357E-01 -0.36643E-01  0.00000E+00  0.00000E+00  0.00000E+00    0.11805E+03  0.00000E+00  0.00000E+00 -0.18649E+00  0.24687E+00  0.28720E+00
  0.70999E-01  0.11845E+03    0.71000E-01 -0.33832E-01 -0.37168E-01  0.00000E+00  0.00000E+00  0.00000E+00    0.11845E+03  0.00000E+00  0.00000E+00 -0.18529E+00  0.24924E+00  0.28781E+00
  0.71999E-01  0.11884E+03    0.72000E-01 -0.34308E-01 -0.37692E-01  0.00000E+00  0.00000E+00  0.00000E+00    0.11884E+03  0.00000E+00  0.00000E+00 -0.18406E+00  0.25162E+00  0.28841E+00
  0.72998E-01  0.11924E+03    0.73000E-01 -0.34783E-01 -0.38217E-01  0.00000E+00  0.00000E+00  0.00000E+00    0.11923E+03  0.00000E+00  0.00000E+00 -0.18282E+00  0.25402E+00  0.28902E+00
  0.73998E-01  0.11963E+03    0.74000E-01 -0.35259E-01 -0.38741E-01  0.00000E+00  0.00000E+00  0.00000E+00    0.11962E+03  0.00000E+00  0.00000E+00 -0.18155E+00  0.25642E+00  0.28963E+00
  0.74998E-01  0.12001E+03    0.75000E-01 -0.35734E-01 -0.39266E-01  0.00000E+00  0.00000E+00  0.00000E+00    0.12001E+03  0.00000E+00  0.00000E+00 -0.18026E+00  0.25885E+00  0.29025E+00
  0.75998E-01  0.12040E+03    0.76000E-01 -0.36209E-01 -0.39791E-01  0.00000E+00  0.00000E+00  0.00000E+00    0.12040E+03  0.00000E+00  0.00000E+00 -0.17895E+00  0.26129E+00  0.29087E+00
  0.76998E-01  0.12078E+03    0.77000E-01 -0.36685E-01 -0.40315E-01  0.00000E+00  0.00000E+00  0.00000E+00    0.12078E+03  0.00000E+00  0.00000E+00 -0.17762E+00  0.26374E+00  0.29149E+00
  0.77998E-01  0.12116E+03    0.78000E-01 -0.37160E-01 -0.40840E-01  0.00000E+00  0.00000E+00  0.00000E+00    0.12116E+03  0.00000E+00  0.00000E+00 -0.17627E+00  0.26621E+00  0.29211E+00
  0.78998E-01  0.12154E+03    0.79000E-01 -0.37636E-01 -0.41364E-01  0.00000E+00  0.00000E+00  0.00000E+00    0.12154E+03  0.00000E+00  0.00000E+00 -0.17490E+00  0.26870E+00  0.29275E+00
  0.79998E-01  0.12192E+03    0.80000E-01 -0.38111E-01 -0.41889E-01  0.00000E+00  0.00000E+00  0.00000E+00    0.12192E+03  0.00000E+00  0.00000E+00 -0.17351E+00  0.27119E+00  0.29339E+00
  0.80998E-01  0.12230E+03    0.81000E-01 -0.38586E-01 -0.42414E-01  0.00000E+00  0.00000E+00  0.00000E+00    0.12229E+03  0.00000E+00  0.00000E+00 -0.17209E+00  0.27371E+00  0.29403E+00
  0.81998E-01  0.12267E+03    0.82000E-01 -0.39061E-01 -0.42939E-01  0.00000E+00  0.00000E+00  0.00000E+00    0.12267E+03  0.00000E+00  0.00000E+00 -0.17066E+00  0.27624E+00  0.29468E+00
  0.82998E-01  0.12304E+03    0.83000E-01 -0.39537E-01 -0.43463E-01  0.00000E+00  0.00000E+00  0.00000E+00    0.12304E+03  0.00000E+00  0.00000E+00 -0.16921E+00  0.27878E+00  0.29533E+00
  0.83998E-01  0.12341E+03    0.84000E-01 -0.40012E-01 -0.43988E-01  0.00000E+00  0.00000E+00  0.00000E+00    0.12341E+03  0.00000E+00  0.00000E+00 -0.16096E+00  0.28454E+00  0.29603E+00
  0.84998E-01  0.12376E+03    0.85000E-01 -0.40487E-01 -0.44513E-01  0.00000E+00  0.00000E+00  0.00000E+00    0.12375E+03  0.00000E+00  0.00000E+00 -0.16125E+00  0.28673E+00  0.29680E+00
  0.85998E-01  0.12412E+03    0.86000E-01 -0.40962E-01 -0.45038E-01  0.00000E+00  0.00000E+00  0.00000E+00    0.12411E+03  0.00000E+00  0.00000E+00 -0.15947E+00  0.28942E+00  0.29749E+00
  0.86998E-01  0.12448E+03    0.87000E-01 -0.41437E-01 -0.45563E-01  0.00000E+00  0.00000E+00  0.00000E+00    0.12448E+03  0.00000E+00  0.00000E+00 -0.15794E+00  0.29205E+00  0.29819E+00
  0.87998E-01  0.12484E+03    0.88000E-01 -0.41912E-01 -0.46088E-01  0.00000E+00  0.00000E+00  0.00000E+00    0.12484E+03  0.00000E+00  0.00000E+00 -0.15640E+00  0.29470E+00  0.29889E+00
  0.88998E-01  0.12525E+03    0.89000E-01 -0.42387E-01 -0.46613E-01  0.00000E+00  0.00000E+00  0.00000E+00    0.12525E+03  0.00000E+00  0.00000E+00 -0.15329E+00  0.29801E+00  0.29950E+00
  0.89998E-01  0.12562E+03    0.90000E-01 -0.42862E-01 -0.47138E-01  0.00000E+00  0.00000E+00  0.00000E+00    0.12561E+03  0.00000E+00  0.00000E+00 -0.15210E+00  0.30060E+00  0.30019E+00
  0.90998E-01  0.12597E+03    0.91000E-01 -0.43337E-01 -0.47663E-01  0.00000E+00  0.00000E+00  0.00000E+00    0.12597E+03  0.00000E+00  0.00000E+00 -0.15051E+00  0.30330E+00  0.30091E+00
  0.91998E-01  0.12633E+03    0.92000E-01 -0.43812E-01 -0.48188E-01  0.00000E+00  0.00000E+00  0.00000E+00    0.12632E+03  0.00000E+00  0.00000E+00 -0.14889E+00  0.30603E+00  0.30164E+00
  0.92998E-01  0.12668E+03    0.93000E-01 -0.44287E-01 -0.48713E-01  0.00000E+00  0.00000E+00  0.00000E+00    0.12668E+03  0.00000E+00  0.00000E+00 -0.14726E+00  0.30876E+00  0.30238E+00
  0.93998E-01  0.12703E+03    0.94000E-01 -0.44762E-01 -0.49238E-01  0.00000E+00  0.00000E+00  0.00000E+00    0.12703E+03  0.00000E+00  0.00000E+00 -0.14562E+00  0.31152E+00  0.30313E+00
  0.94998E-01  0.12738E+03    0.95000E-01 -0.45237E-01 -0.49763E-01  0.00000E+00  0.00000E+00  0.00000E+00    0.12738E+03  0.00000E+00  0.00000E+00 -0.14396E+00  0.31429E+00  0.30390E+00
  0.95998E-01  0.12773E+03    0.96000E-01 -0.45712E-01 -0.50288E-01  0.00000E+00  0.00000E+00  0.00000E+00    0.12773E+03  0.00000E+00  0.00000E+00 -0.14228E+00  0.31708E+00  0.30467E+00
  0.96998E-01  0.12807E+03    0.97000E-01 -0.46187E-01 -0.50813E-01  0.00000E+00  0.00000E+00  0.00000E+00    0.12807E+03  0.00000E+00  0.00000E+00 -0.14059E+00  0.31989E+00  0.30546E+00
  0.97998E-01  0.12842E+03    0.98000E-01 -0.46662E-01 -0.51338E-01  0.00000E+00  0.00000E+00  0.00000E+00    0.12842E+03  0.00000E+00  0.00000E+00 -0.13888E+00  0.32271E+00  0.30626E+00
  0.98998E-01  0.12876E+03    0.99000E-01 -0.47137E-01 -0.51863E-01  0.00000E+00  0.00000E+00  0.00000E+00    0.12876E+03  0.00000E+00  0.00000E+00 -0.13716E+00  0.32556E+00  0.30707E+00
  0.99998E-01  0.12910E+03    0.10000E+00 -0.47611E-01 -0.52389E-01  0.00000E+00  0.00000E+00  0.00000E+00    0.12910E+03  0.00000E+00  0.00000E+00 -0.13542E+00  0.32842E+00  0.30789E+00
