          Evm          Svm            E11          E22          E33          E23          E13          E12         SCAU11       SCAU22       SCAU33       SCAU23       SCAU13       SCAU12      TEMP
  0.00000E+00  0.85215E+02    0.00000E+00  0.00000E+00  0.00000E+00  0.00000E+00  0.00000E+00  0.00000E+00    0.85213E+02  0.00000E+00  0.00000E+00 -0.19764E+00  0.12253E+00  0.23546E+00
  0.99998E-03  0.85778E+02    0.10000E-02 -0.47967E-03 -0.52033E-03  0.00000E+00  0.00000E+00  0.00000E+00    0.85776E+02  0.00000E+00  0.00000E+00 -0.20208E+00  0.12549E+00  0.23861E+00
  0.20000E-02  0.86309E+02    0.20000E-02 -0.95784E-03 -0.10422E-02  0.00000E+00  0.00000E+00  0.00000E+00    0.86307E+02  0.00000E+00  0.00000E+00 -0.20242E+00  0.12653E+00  0.24071E+00
  0.29999E-02  0.86895E+02    0.30000E-02 -0.14356E-02 -0.15644E-02  0.00000E+00  0.00000E+00  0.00000E+00    0.86893E+02  0.00000E+00  0.00000E+00 -0.20352E+00  0.12766E+00  0.24216E+00
  0.39999E-02  0.87480E+02    0.40000E-02 -0.19132E-02 -0.20868E-02  0.00000E+00  0.00000E+00  0.00000E+00    0.87478E+02  0.00000E+00  0.00000E+00 -0.20447E+00  0.12882E+00  0.24337E+00
  0.49999E-02  0.88050E+02    0.50000E-02 -0.23906E-02 -0.26094E-02  0.00000E+00  0.00000E+00  0.00000E+00    0.88048E+02  0.00000E+00  0.00000E+00 -0.20345E+00  0.13084E+00  0.24448E+00
  0.59999E-02  0.88635E+02    0.60000E-02 -0.28678E-02 -0.31322E-02  0.00000E+00  0.00000E+00  0.00000E+00    0.88633E+02  0.00000E+00  0.00000E+00 -0.20433E+00  0.13218E+00  0.24556E+00
  0.69998E-02  0.89210E+02    0.70000E-02 -0.33451E-02 -0.36549E-02  0.00000E+00  0.00000E+00  0.00000E+00    0.89208E+02  0.00000E+00  0.00000E+00 -0.20515E+00  0.13344E+00  0.24656E+00
  0.79998E-02  0.89780E+02    0.80000E-02 -0.38222E-02 -0.41778E-02  0.00000E+00  0.00000E+00  0.00000E+00    0.89778E+02  0.00000E+00  0.00000E+00 -0.20592E+00  0.13471E+00  0.24753E+00
  0.89998E-02  0.90346E+02    0.90000E-02 -0.42994E-02 -0.47006E-02  0.00000E+00  0.00000E+00  0.00000E+00    0.90344E+02  0.00000E+00  0.00000E+00 -0.20664E+00  0.13601E+00  0.24847E+00
  0.99998E-02  0.90910E+02    0.10000E-01 -0.47764E-02 -0.52236E-02  0.00000E+00  0.00000E+00  0.00000E+00    0.90908E+02  0.00000E+00  0.00000E+00 -0.20732E+00  0.13733E+00  0.24939E+00
  0.11000E-01  0.91469E+02    0.11000E-01 -0.52535E-02 -0.57465E-02  0.00000E+00  0.00000E+00  0.00000E+00    0.91467E+02  0.00000E+00  0.00000E+00 -0.20796E+00  0.13867E+00  0.25029E+00
  0.12000E-01  0.92026E+02    0.12000E-01 -0.57305E-02 -0.62695E-02  0.00000E+00  0.00000E+00  0.00000E+00    0.92023E+02  0.00000E+00  0.00000E+00 -0.20856E+00  0.14003E+00  0.25118E+00
  0.13000E-01  0.92578E+02    0.13000E-01 -0.62075E-02 -0.67925E-02  0.00000E+00  0.00000E+00  0.00000E+00    0.92576E+02  0.00000E+00  0.00000E+00 -0.20912E+00  0.14141E+00  0.25206E+00
  0.14000E-01  0.93128E+02    0.14000E-01 -0.66845E-02 -0.73155E-02  0.00000E+00  0.00000E+00  0.00000E+00    0.93126E+02  0.00000E+00  0.00000E+00 -0.20964E+00  0.14282E+00  0.25292E+00
  0.15000E-01  0.93674E+02    0.15000E-01 -0.71615E-02 -0.78385E-02  0.00000E+00  0.00000E+00  0.00000E+00    0.93672E+02  0.00000E+00  0.00000E+00 -0.21011E+00  0.14425E+00  0.25377E+00
  0.16000E-01  0.94217E+02    0.16000E-01 -0.76384E-02 -0.83616E-02  0.00000E+00  0.00000E+00  0.00000E+00    0.94215E+02  0.00000E+00  0.00000E+00 -0.21055E+00  0.14570E+00  0.25460E+00
  0.17000E-01  0.94757E+02    0.17000E-01 -0.81153E-02 -0.88847E-02  0.00000E+00  0.00000E+00  0.00000E+00    0.94755E+02  0.00000E+00  0.00000E+00 -0.21094E+00  0.14717E+00  0.25543E+00
  0.18000E-01  0.95293E+02    0.18000E-01 -0.85922E-02 -0.94078E-02  0.00000E+00  0.00000E+00  0.00000E+00    0.95291E+02  0.00000E+00  0.00000E+00 -0.21130E+00  0.14867E+00  0.25624E+00
  0.19000E-01  0.95826E+02    0.19000E-01 -0.90691E-02 -0.99309E-02  0.00000E+00  0.00000E+00  0.00000E+00    0.95824E+02  0.00000E+00  0.00000E+00 -0.21162E+00  0.15018E+00  0.25704E+00
  0.20000E-01  0.96356E+02    0.20000E-01 -0.95459E-02 -0.10454E-01  0.00000E+00  0.00000E+00  0.00000E+00    0.96354E+02  0.00000E+00  0.00000E+00 -0.21190E+00  0.15172E+00  0.25783E+00
  0.21000E-01  0.96883E+02    0.21000E-01 -0.10023E-01 -0.10977E-01  0.00000E+00  0.00000E+00  0.00000E+00    0.96881E+02  0.00000E+00  0.00000E+00 -0.21214E+00  0.15327E+00  0.25862E+00
  0.22000E-01  0.97406E+02    0.22000E-01 -0.10500E-01 -0.11500E-01  0.00000E+00  0.00000E+00  0.00000E+00    0.97404E+02  0.00000E+00  0.00000E+00 -0.21234E+00  0.15485E+00  0.25939E+00
  0.22999E-01  0.97927E+02    0.23000E-01 -0.10976E-01 -0.12024E-01  0.00000E+00  0.00000E+00  0.00000E+00    0.97925E+02  0.00000E+00  0.00000E+00 -0.21251E+00  0.15645E+00  0.26015E+00
  0.23999E-01  0.98444E+02    0.24000E-01 -0.11453E-01 -0.12547E-01  0.00000E+00  0.00000E+00  0.00000E+00    0.98442E+02  0.00000E+00  0.00000E+00 -0.21263E+00  0.15807E+00  0.26090E+00
  0.24999E-01  0.98958E+02    0.25000E-01 -0.11930E-01 -0.13070E-01  0.00000E+00  0.00000E+00  0.00000E+00    0.98956E+02  0.00000E+00  0.00000E+00 -0.21272E+00  0.15971E+00  0.26165E+00
  0.25999E-01  0.99469E+02    0.26000E-01 -0.12406E-01 -0.13594E-01  0.00000E+00  0.00000E+00  0.00000E+00    0.99467E+02  0.00000E+00  0.00000E+00 -0.21278E+00  0.16137E+00  0.26239E+00
  0.26999E-01  0.99978E+02    0.27000E-01 -0.12883E-01 -0.14117E-01  0.00000E+00  0.00000E+00  0.00000E+00    0.99975E+02  0.00000E+00  0.00000E+00 -0.21280E+00  0.16304E+00  0.26311E+00
  0.27999E-01  0.10048E+03    0.28000E-01 -0.13360E-01 -0.14640E-01  0.00000E+00  0.00000E+00  0.00000E+00    0.10048E+03  0.00000E+00  0.00000E+00 -0.21278E+00  0.16474E+00  0.26383E+00
  0.28999E-01  0.10098E+03    0.29000E-01 -0.13836E-01 -0.15164E-01  0.00000E+00  0.00000E+00  0.00000E+00    0.10098E+03  0.00000E+00  0.00000E+00 -0.21273E+00  0.16646E+00  0.26455E+00
  0.29999E-01  0.10148E+03    0.30000E-01 -0.14313E-01 -0.15687E-01  0.00000E+00  0.00000E+00  0.00000E+00    0.10148E+03  0.00000E+00  0.00000E+00 -0.21264E+00  0.16820E+00  0.26525E+00
  0.30999E-01  0.10198E+03    0.31000E-01 -0.14790E-01 -0.16210E-01  0.00000E+00  0.00000E+00  0.00000E+00    0.10198E+03  0.00000E+00  0.00000E+00 -0.21251E+00  0.16996E+00  0.26595E+00
  0.31999E-01  0.10247E+03    0.32000E-01 -0.15266E-01 -0.16734E-01  0.00000E+00  0.00000E+00  0.00000E+00    0.10247E+03  0.00000E+00  0.00000E+00 -0.21236E+00  0.17174E+00  0.26664E+00
  0.32999E-01  0.10296E+03    0.33000E-01 -0.15743E-01 -0.17257E-01  0.00000E+00  0.00000E+00  0.00000E+00    0.10296E+03  0.00000E+00  0.00000E+00 -0.21217E+00  0.17353E+00  0.26733E+00
  0.33999E-01  0.10345E+03    0.34000E-01 -0.16219E-01 -0.17781E-01  0.00000E+00  0.00000E+00  0.00000E+00    0.10345E+03  0.00000E+00  0.00000E+00 -0.21195E+00  0.17535E+00  0.26801E+00
  0.34999E-01  0.10394E+03    0.35000E-01 -0.16696E-01 -0.18304E-01  0.00000E+00  0.00000E+00  0.00000E+00    0.10393E+03  0.00000E+00  0.00000E+00 -0.21169E+00  0.17718E+00  0.26868E+00
  0.35999E-01  0.10442E+03    0.36000E-01 -0.17172E-01 -0.18828E-01  0.00000E+00  0.00000E+00  0.00000E+00    0.10442E+03  0.00000E+00  0.00000E+00 -0.21140E+00  0.17903E+00  0.26934E+00
  0.36999E-01  0.10490E+03    0.37000E-01 -0.17649E-01 -0.19351E-01  0.00000E+00  0.00000E+00  0.00000E+00    0.10489E+03  0.00000E+00  0.00000E+00 -0.21108E+00  0.18090E+00  0.27000E+00
  0.37999E-01  0.10537E+03    0.38000E-01 -0.18125E-01 -0.19875E-01  0.00000E+00  0.00000E+00  0.00000E+00    0.10537E+03  0.00000E+00  0.00000E+00 -0.21073E+00  0.18279E+00  0.27066E+00
  0.38999E-01  0.10585E+03    0.39000E-01 -0.18601E-01 -0.20399E-01  0.00000E+00  0.00000E+00  0.00000E+00    0.10584E+03  0.00000E+00  0.00000E+00 -0.21035E+00  0.18469E+00  0.27130E+00
  0.39999E-01  0.10632E+03    0.40000E-01 -0.19078E-01 -0.20922E-01  0.00000E+00  0.00000E+00  0.00000E+00    0.10632E+03  0.00000E+00  0.00000E+00 -0.20993E+00  0.18662E+00  0.27195E+00
  0.40999E-01  0.10679E+03    0.41000E-01 -0.19554E-01 -0.21446E-01  0.00000E+00  0.00000E+00  0.00000E+00    0.10678E+03  0.00000E+00  0.00000E+00 -0.20948E+00  0.18856E+00  0.27259E+00
  0.41999E-01  0.10725E+03    0.42000E-01 -0.20030E-01 -0.21970E-01  0.00000E+00  0.00000E+00  0.00000E+00    0.10725E+03  0.00000E+00  0.00000E+00 -0.20901E+00  0.19052E+00  0.27322E+00
  0.42999E-01  0.10768E+03    0.43000E-01 -0.20507E-01 -0.22493E-01  0.00000E+00  0.00000E+00  0.00000E+00    0.10768E+03  0.00000E+00  0.00000E+00 -0.21153E+00  0.19093E+00  0.27386E+00
  0.43999E-01  0.10817E+03    0.44000E-01 -0.20983E-01 -0.23017E-01  0.00000E+00  0.00000E+00  0.00000E+00    0.10817E+03  0.00000E+00  0.00000E+00 -0.20817E+00  0.19434E+00  0.27444E+00
  0.44999E-01  0.10860E+03    0.45000E-01 -0.21459E-01 -0.23541E-01  0.00000E+00  0.00000E+00  0.00000E+00    0.10859E+03  0.00000E+00  0.00000E+00 -0.21045E+00  0.19489E+00  0.27511E+00
  0.45999E-01  0.10905E+03    0.46000E-01 -0.21935E-01 -0.24065E-01  0.00000E+00  0.00000E+00  0.00000E+00    0.10905E+03  0.00000E+00  0.00000E+00 -0.20994E+00  0.19681E+00  0.27574E+00
  0.46999E-01  0.10951E+03    0.47000E-01 -0.22412E-01 -0.24588E-01  0.00000E+00  0.00000E+00  0.00000E+00    0.10950E+03  0.00000E+00  0.00000E+00 -0.20932E+00  0.19883E+00  0.27635E+00
  0.47999E-01  0.10996E+03    0.48000E-01 -0.22888E-01 -0.25112E-01  0.00000E+00  0.00000E+00  0.00000E+00    0.10995E+03  0.00000E+00  0.00000E+00 -0.20867E+00  0.20087E+00  0.27697E+00
  0.48999E-01  0.11040E+03    0.49000E-01 -0.23364E-01 -0.25636E-01  0.00000E+00  0.00000E+00  0.00000E+00    0.11040E+03  0.00000E+00  0.00000E+00 -0.20800E+00  0.20292E+00  0.27758E+00
  0.49999E-01  0.11085E+03    0.50000E-01 -0.23840E-01 -0.26160E-01  0.00000E+00  0.00000E+00  0.00000E+00    0.11085E+03  0.00000E+00  0.00000E+00 -0.20729E+00  0.20499E+00  0.27819E+00
  0.50999E-01  0.11129E+03    0.51000E-01 -0.24316E-01 -0.26684E-01  0.00000E+00  0.00000E+00  0.00000E+00    0.11129E+03  0.00000E+00  0.00000E+00 -0.20656E+00  0.20707E+00  0.27880E+00
  0.51999E-01  0.11173E+03    0.52000E-01 -0.24792E-01 -0.27208E-01  0.00000E+00  0.00000E+00  0.00000E+00    0.11173E+03  0.00000E+00  0.00000E+00 -0.20580E+00  0.20917E+00  0.27941E+00
  0.52999E-01  0.11218E+03    0.53000E-01 -0.25268E-01 -0.27732E-01  0.00000E+00  0.00000E+00  0.00000E+00    0.11218E+03  0.00000E+00  0.00000E+00 -0.20214E+00  0.21288E+00  0.27988E+00
  0.53999E-01  0.11260E+03    0.54000E-01 -0.25744E-01 -0.28256E-01  0.00000E+00  0.00000E+00  0.00000E+00    0.11260E+03  0.00000E+00  0.00000E+00 -0.20416E+00  0.21350E+00  0.28061E+00
  0.54999E-01  0.11305E+03    0.55000E-01 -0.26220E-01 -0.28780E-01  0.00000E+00  0.00000E+00  0.00000E+00    0.11305E+03  0.00000E+00  0.00000E+00 -0.20050E+00  0.21719E+00  0.28107E+00
  0.55999E-01  0.11346E+03    0.56000E-01 -0.26696E-01 -0.29304E-01  0.00000E+00  0.00000E+00  0.00000E+00    0.11346E+03  0.00000E+00  0.00000E+00 -0.20246E+00  0.21781E+00  0.28181E+00
  0.56999E-01  0.11388E+03    0.57000E-01 -0.27172E-01 -0.29828E-01  0.00000E+00  0.00000E+00  0.00000E+00    0.11388E+03  0.00000E+00  0.00000E+00 -0.20197E+00  0.21976E+00  0.28238E+00
  0.57999E-01  0.11432E+03    0.58000E-01 -0.27648E-01 -0.30352E-01  0.00000E+00  0.00000E+00  0.00000E+00    0.11431E+03  0.00000E+00  0.00000E+00 -0.20073E+00  0.22209E+00  0.28299E+00
  0.58999E-01  0.11473E+03    0.59000E-01 -0.28124E-01 -0.30876E-01  0.00000E+00  0.00000E+00  0.00000E+00    0.11473E+03  0.00000E+00  0.00000E+00 -0.20012E+00  0.22415E+00  0.28356E+00
  0.59999E-01  0.11516E+03    0.60000E-01 -0.28600E-01 -0.31400E-01  0.00000E+00  0.00000E+00  0.00000E+00    0.11516E+03  0.00000E+00  0.00000E+00 -0.19882E+00  0.22652E+00  0.28418E+00
  0.60999E-01  0.11557E+03    0.61000E-01 -0.29075E-01 -0.31925E-01  0.00000E+00  0.00000E+00  0.00000E+00    0.11556E+03  0.00000E+00  0.00000E+00 -0.19817E+00  0.22860E+00  0.28475E+00
  0.61999E-01  0.11599E+03    0.62000E-01 -0.29551E-01 -0.32449E-01  0.00000E+00  0.00000E+00  0.00000E+00    0.11599E+03  0.00000E+00  0.00000E+00 -0.19682E+00  0.23101E+00  0.28536E+00
  0.62999E-01  0.11640E+03    0.63000E-01 -0.30027E-01 -0.32973E-01  0.00000E+00  0.00000E+00  0.00000E+00    0.11639E+03  0.00000E+00  0.00000E+00 -0.19612E+00  0.23312E+00  0.28594E+00
  0.63999E-01  0.11682E+03    0.64000E-01 -0.30503E-01 -0.33497E-01  0.00000E+00  0.00000E+00  0.00000E+00    0.11682E+03  0.00000E+00  0.00000E+00 -0.19472E+00  0.23555E+00  0.28654E+00
  0.64999E-01  0.11722E+03    0.65000E-01 -0.30978E-01 -0.34022E-01  0.00000E+00  0.00000E+00  0.00000E+00    0.11721E+03  0.00000E+00  0.00000E+00 -0.19397E+00  0.23769E+00  0.28712E+00
  0.65999E-01  0.11764E+03    0.66000E-01 -0.31454E-01 -0.34546E-01  0.00000E+00  0.00000E+00  0.00000E+00    0.11763E+03  0.00000E+00  0.00000E+00 -0.19253E+00  0.24016E+00  0.28773E+00
  0.66999E-01  0.11803E+03    0.67000E-01 -0.31930E-01 -0.35070E-01  0.00000E+00  0.00000E+00  0.00000E+00    0.11803E+03  0.00000E+00  0.00000E+00 -0.19173E+00  0.24232E+00  0.28831E+00
  0.67999E-01  0.11843E+03    0.68000E-01 -0.32405E-01 -0.35595E-01  0.00000E+00  0.00000E+00  0.00000E+00    0.11843E+03  0.00000E+00  0.00000E+00 -0.19064E+00  0.24464E+00  0.28891E+00
  0.68999E-01  0.11883E+03    0.69000E-01 -0.32881E-01 -0.36119E-01  0.00000E+00  0.00000E+00  0.00000E+00    0.11883E+03  0.00000E+00  0.00000E+00 -0.18947E+00  0.24698E+00  0.28950E+00
  0.69999E-01  0.11923E+03    0.70000E-01 -0.33357E-01 -0.36643E-01  0.00000E+00  0.00000E+00  0.00000E+00    0.11923E+03  0.00000E+00  0.00000E+00 -0.18828E+00  0.24935E+00  0.29010E+00
  0.70999E-01  0.11962E+03    0.71000E-01 -0.33832E-01 -0.37168E-01  0.00000E+00  0.00000E+00  0.00000E+00    0.11962E+03  0.00000E+00  0.00000E+00 -0.18706E+00  0.25173E+00  0.29070E+00
  0.71999E-01  0.12002E+03    0.72000E-01 -0.34308E-01 -0.37692E-01  0.00000E+00  0.00000E+00  0.00000E+00    0.12002E+03  0.00000E+00  0.00000E+00 -0.18582E+00  0.25413E+00  0.29131E+00
  0.72998E-01  0.12041E+03    0.73000E-01 -0.34783E-01 -0.38217E-01  0.00000E+00  0.00000E+00  0.00000E+00    0.12041E+03  0.00000E+00  0.00000E+00 -0.18455E+00  0.25653E+00  0.29191E+00
  0.73998E-01  0.12080E+03    0.74000E-01 -0.35259E-01 -0.38741E-01  0.00000E+00  0.00000E+00  0.00000E+00    0.12080E+03  0.00000E+00  0.00000E+00 -0.18327E+00  0.25896E+00  0.29252E+00
  0.74998E-01  0.12119E+03    0.75000E-01 -0.35734E-01 -0.39266E-01  0.00000E+00  0.00000E+00  0.00000E+00    0.12118E+03  0.00000E+00  0.00000E+00 -0.18196E+00  0.26140E+00  0.29314E+00
  0.75998E-01  0.12157E+03    0.76000E-01 -0.36209E-01 -0.39791E-01  0.00000E+00  0.00000E+00  0.00000E+00    0.12157E+03  0.00000E+00  0.00000E+00 -0.18063E+00  0.26385E+00  0.29375E+00
  0.76998E-01  0.12196E+03    0.77000E-01 -0.36685E-01 -0.40315E-01  0.00000E+00  0.00000E+00  0.00000E+00    0.12195E+03  0.00000E+00  0.00000E+00 -0.17929E+00  0.26632E+00  0.29437E+00
  0.77998E-01  0.12234E+03    0.78000E-01 -0.37160E-01 -0.40840E-01  0.00000E+00  0.00000E+00  0.00000E+00    0.12234E+03  0.00000E+00  0.00000E+00 -0.17792E+00  0.26881E+00  0.29499E+00
  0.78998E-01  0.12272E+03    0.79000E-01 -0.37636E-01 -0.41364E-01  0.00000E+00  0.00000E+00  0.00000E+00    0.12272E+03  0.00000E+00  0.00000E+00 -0.17653E+00  0.27131E+00  0.29563E+00
  0.79998E-01  0.12310E+03    0.80000E-01 -0.38111E-01 -0.41889E-01  0.00000E+00  0.00000E+00  0.00000E+00    0.12309E+03  0.00000E+00  0.00000E+00 -0.17512E+00  0.27382E+00  0.29626E+00
  0.80998E-01  0.12347E+03    0.81000E-01 -0.38586E-01 -0.42414E-01  0.00000E+00  0.00000E+00  0.00000E+00    0.12347E+03  0.00000E+00  0.00000E+00 -0.17369E+00  0.27635E+00  0.29690E+00
  0.81998E-01  0.12384E+03    0.82000E-01 -0.39061E-01 -0.42939E-01  0.00000E+00  0.00000E+00  0.00000E+00    0.12384E+03  0.00000E+00  0.00000E+00 -0.17225E+00  0.27890E+00  0.29755E+00
  0.82998E-01  0.12422E+03    0.83000E-01 -0.39537E-01 -0.43463E-01  0.00000E+00  0.00000E+00  0.00000E+00    0.12421E+03  0.00000E+00  0.00000E+00 -0.16399E+00  0.28464E+00  0.29823E+00
  0.83998E-01  0.12456E+03    0.84000E-01 -0.40012E-01 -0.43988E-01  0.00000E+00  0.00000E+00  0.00000E+00    0.12456E+03  0.00000E+00  0.00000E+00 -0.16428E+00  0.28683E+00  0.29899E+00
  0.84998E-01  0.12492E+03    0.85000E-01 -0.40487E-01 -0.44513E-01  0.00000E+00  0.00000E+00  0.00000E+00    0.12492E+03  0.00000E+00  0.00000E+00 -0.16250E+00  0.28952E+00  0.29968E+00
  0.85998E-01  0.12529E+03    0.86000E-01 -0.40962E-01 -0.45038E-01  0.00000E+00  0.00000E+00  0.00000E+00    0.12529E+03  0.00000E+00  0.00000E+00 -0.16097E+00  0.29216E+00  0.30036E+00
  0.86998E-01  0.12565E+03    0.87000E-01 -0.41437E-01 -0.45563E-01  0.00000E+00  0.00000E+00  0.00000E+00    0.12565E+03  0.00000E+00  0.00000E+00 -0.15943E+00  0.29480E+00  0.30105E+00
  0.87998E-01  0.12606E+03    0.88000E-01 -0.41912E-01 -0.46088E-01  0.00000E+00  0.00000E+00  0.00000E+00    0.12606E+03  0.00000E+00  0.00000E+00 -0.15632E+00  0.29811E+00  0.30166E+00
  0.88998E-01  0.12643E+03    0.89000E-01 -0.42387E-01 -0.46613E-01  0.00000E+00  0.00000E+00  0.00000E+00    0.12643E+03  0.00000E+00  0.00000E+00 -0.15514E+00  0.30070E+00  0.30234E+00
  0.89998E-01  0.12679E+03    0.90000E-01 -0.42862E-01 -0.47138E-01  0.00000E+00  0.00000E+00  0.00000E+00    0.12679E+03  0.00000E+00  0.00000E+00 -0.15355E+00  0.30340E+00  0.30304E+00
  0.90998E-01  0.12715E+03    0.91000E-01 -0.43337E-01 -0.47663E-01  0.00000E+00  0.00000E+00  0.00000E+00    0.12714E+03  0.00000E+00  0.00000E+00 -0.15193E+00  0.30613E+00  0.30376E+00
  0.91998E-01  0.12750E+03    0.92000E-01 -0.43812E-01 -0.48188E-01  0.00000E+00  0.00000E+00  0.00000E+00    0.12750E+03  0.00000E+00  0.00000E+00 -0.15030E+00  0.30886E+00  0.30450E+00
  0.92998E-01  0.12785E+03    0.93000E-01 -0.44287E-01 -0.48713E-01  0.00000E+00  0.00000E+00  0.00000E+00    0.12785E+03  0.00000E+00  0.00000E+00 -0.14865E+00  0.31162E+00  0.30524E+00
  0.93998E-01  0.12821E+03    0.94000E-01 -0.44762E-01 -0.49238E-01  0.00000E+00  0.00000E+00  0.00000E+00    0.12820E+03  0.00000E+00  0.00000E+00 -0.14699E+00  0.31439E+00  0.30599E+00
  0.94998E-01  0.12856E+03    0.95000E-01 -0.45237E-01 -0.49763E-01  0.00000E+00  0.00000E+00  0.00000E+00    0.12855E+03  0.00000E+00  0.00000E+00 -0.14531E+00  0.31718E+00  0.30675E+00
  0.95998E-01  0.12890E+03    0.96000E-01 -0.45712E-01 -0.50288E-01  0.00000E+00  0.00000E+00  0.00000E+00    0.12890E+03  0.00000E+00  0.00000E+00 -0.14361E+00  0.31999E+00  0.30752E+00
  0.96998E-01  0.12925E+03    0.97000E-01 -0.46187E-01 -0.50813E-01  0.00000E+00  0.00000E+00  0.00000E+00    0.12925E+03  0.00000E+00  0.00000E+00 -0.14190E+00  0.32281E+00  0.30831E+00
  0.97998E-01  0.12959E+03    0.98000E-01 -0.46662E-01 -0.51338E-01  0.00000E+00  0.00000E+00  0.00000E+00    0.12959E+03  0.00000E+00  0.00000E+00 -0.14018E+00  0.32566E+00  0.30911E+00
  0.98998E-01  0.12994E+03    0.99000E-01 -0.47137E-01 -0.51863E-01  0.00000E+00  0.00000E+00  0.00000E+00    0.12993E+03  0.00000E+00  0.00000E+00 -0.13844E+00  0.32852E+00  0.30992E+00
  0.99998E-01  0.13028E+03    0.10000E+00 -0.47611E-01 -0.52389E-01  0.00000E+00  0.00000E+00  0.00000E+00    0.13027E+03  0.00000E+00  0.00000E+00 -0.13668E+00  0.33140E+00  0.31074E+00
