          Evm          Svm            E11          E22          E33          E23          E13          E12         SCAU11       SCAU22       SCAU33       SCAU23       SCAU13       SCAU12      TEMP
  0.00000E+00  0.95588E+02    0.00000E+00  0.00000E+00  0.00000E+00  0.00000E+00  0.00000E+00  0.00000E+00    0.95586E+02  0.00000E+00  0.00000E+00 -0.22170E+00  0.13745E+00  0.26412E+00
  0.99998E-03  0.96149E+02    0.10000E-02 -0.47967E-03 -0.52033E-03  0.00000E+00  0.00000E+00  0.00000E+00    0.96147E+02  0.00000E+00  0.00000E+00 -0.22619E+00  0.14069E+00  0.26748E+00
  0.20000E-02  0.96681E+02    0.20000E-02 -0.95784E-03 -0.10422E-02  0.00000E+00  0.00000E+00  0.00000E+00    0.96679E+02  0.00000E+00  0.00000E+00 -0.22644E+00  0.14172E+00  0.26966E+00
  0.29999E-02  0.97258E+02    0.30000E-02 -0.14356E-02 -0.15644E-02  0.00000E+00  0.00000E+00  0.00000E+00    0.97256E+02  0.00000E+00  0.00000E+00 -0.22553E+00  0.14378E+00  0.27100E+00
  0.39999E-02  0.97851E+02    0.40000E-02 -0.19132E-02 -0.20868E-02  0.00000E+00  0.00000E+00  0.00000E+00    0.97849E+02  0.00000E+00  0.00000E+00 -0.22642E+00  0.14512E+00  0.27228E+00
  0.49999E-02  0.98433E+02    0.50000E-02 -0.23906E-02 -0.26094E-02  0.00000E+00  0.00000E+00  0.00000E+00    0.98431E+02  0.00000E+00  0.00000E+00 -0.22725E+00  0.14638E+00  0.27334E+00
  0.59999E-02  0.99011E+02    0.60000E-02 -0.28679E-02 -0.31321E-02  0.00000E+00  0.00000E+00  0.00000E+00    0.99008E+02  0.00000E+00  0.00000E+00 -0.22801E+00  0.14766E+00  0.27434E+00
  0.69998E-02  0.99585E+02    0.70000E-02 -0.33452E-02 -0.36548E-02  0.00000E+00  0.00000E+00  0.00000E+00    0.99582E+02  0.00000E+00  0.00000E+00 -0.22874E+00  0.14897E+00  0.27529E+00
  0.79998E-02  0.10016E+03    0.80000E-02 -0.38224E-02 -0.41776E-02  0.00000E+00  0.00000E+00  0.00000E+00    0.10015E+03  0.00000E+00  0.00000E+00 -0.22942E+00  0.15031E+00  0.27621E+00
  0.89998E-02  0.10072E+03    0.90000E-02 -0.42995E-02 -0.47005E-02  0.00000E+00  0.00000E+00  0.00000E+00    0.10072E+03  0.00000E+00  0.00000E+00 -0.23005E+00  0.15167E+00  0.27711E+00
  0.99998E-02  0.10129E+03    0.10000E-01 -0.47766E-02 -0.52234E-02  0.00000E+00  0.00000E+00  0.00000E+00    0.10128E+03  0.00000E+00  0.00000E+00 -0.23064E+00  0.15306E+00  0.27798E+00
  0.11000E-01  0.10185E+03    0.11000E-01 -0.52537E-02 -0.57463E-02  0.00000E+00  0.00000E+00  0.00000E+00    0.10184E+03  0.00000E+00  0.00000E+00 -0.23119E+00  0.15447E+00  0.27883E+00
  0.12000E-01  0.10240E+03    0.12000E-01 -0.57307E-02 -0.62693E-02  0.00000E+00  0.00000E+00  0.00000E+00    0.10240E+03  0.00000E+00  0.00000E+00 -0.23170E+00  0.15591E+00  0.27966E+00
  0.13000E-01  0.10296E+03    0.13000E-01 -0.62077E-02 -0.67923E-02  0.00000E+00  0.00000E+00  0.00000E+00    0.10295E+03  0.00000E+00  0.00000E+00 -0.23216E+00  0.15737E+00  0.28048E+00
  0.14000E-01  0.10351E+03    0.14000E-01 -0.66847E-02 -0.73153E-02  0.00000E+00  0.00000E+00  0.00000E+00    0.10350E+03  0.00000E+00  0.00000E+00 -0.23258E+00  0.15885E+00  0.28129E+00
  0.15000E-01  0.10405E+03    0.15000E-01 -0.71617E-02 -0.78383E-02  0.00000E+00  0.00000E+00  0.00000E+00    0.10405E+03  0.00000E+00  0.00000E+00 -0.23296E+00  0.16035E+00  0.28208E+00
  0.16000E-01  0.10460E+03    0.16000E-01 -0.76386E-02 -0.83614E-02  0.00000E+00  0.00000E+00  0.00000E+00    0.10459E+03  0.00000E+00  0.00000E+00 -0.23330E+00  0.16188E+00  0.28286E+00
  0.17000E-01  0.10514E+03    0.17000E-01 -0.81155E-02 -0.88845E-02  0.00000E+00  0.00000E+00  0.00000E+00    0.10513E+03  0.00000E+00  0.00000E+00 -0.23360E+00  0.16343E+00  0.28362E+00
  0.18000E-01  0.10567E+03    0.18000E-01 -0.85924E-02 -0.94076E-02  0.00000E+00  0.00000E+00  0.00000E+00    0.10567E+03  0.00000E+00  0.00000E+00 -0.23385E+00  0.16501E+00  0.28438E+00
  0.19000E-01  0.10621E+03    0.19000E-01 -0.90693E-02 -0.99307E-02  0.00000E+00  0.00000E+00  0.00000E+00    0.10620E+03  0.00000E+00  0.00000E+00 -0.23406E+00  0.16660E+00  0.28513E+00
  0.20000E-01  0.10674E+03    0.20000E-01 -0.95461E-02 -0.10454E-01  0.00000E+00  0.00000E+00  0.00000E+00    0.10673E+03  0.00000E+00  0.00000E+00 -0.23424E+00  0.16822E+00  0.28586E+00
  0.21000E-01  0.10726E+03    0.21000E-01 -0.10023E-01 -0.10977E-01  0.00000E+00  0.00000E+00  0.00000E+00    0.10726E+03  0.00000E+00  0.00000E+00 -0.23437E+00  0.16986E+00  0.28658E+00
  0.22000E-01  0.10779E+03    0.22000E-01 -0.10500E-01 -0.11500E-01  0.00000E+00  0.00000E+00  0.00000E+00    0.10778E+03  0.00000E+00  0.00000E+00 -0.23446E+00  0.17152E+00  0.28730E+00
  0.22999E-01  0.10831E+03    0.23000E-01 -0.10976E-01 -0.12024E-01  0.00000E+00  0.00000E+00  0.00000E+00    0.10831E+03  0.00000E+00  0.00000E+00 -0.23452E+00  0.17321E+00  0.28801E+00
  0.23999E-01  0.10883E+03    0.24000E-01 -0.11453E-01 -0.12547E-01  0.00000E+00  0.00000E+00  0.00000E+00    0.10882E+03  0.00000E+00  0.00000E+00 -0.23454E+00  0.17492E+00  0.28871E+00
  0.24999E-01  0.10934E+03    0.25000E-01 -0.11930E-01 -0.13070E-01  0.00000E+00  0.00000E+00  0.00000E+00    0.10934E+03  0.00000E+00  0.00000E+00 -0.23451E+00  0.17665E+00  0.28940E+00
  0.25999E-01  0.10985E+03    0.26000E-01 -0.12407E-01 -0.13593E-01  0.00000E+00  0.00000E+00  0.00000E+00    0.10985E+03  0.00000E+00  0.00000E+00 -0.23446E+00  0.17840E+00  0.29008E+00
  0.26999E-01  0.11036E+03    0.27000E-01 -0.12883E-01 -0.14117E-01  0.00000E+00  0.00000E+00  0.00000E+00    0.11036E+03  0.00000E+00  0.00000E+00 -0.23436E+00  0.18017E+00  0.29075E+00
  0.27999E-01  0.11087E+03    0.28000E-01 -0.13360E-01 -0.14640E-01  0.00000E+00  0.00000E+00  0.00000E+00    0.11086E+03  0.00000E+00  0.00000E+00 -0.23423E+00  0.18196E+00  0.29142E+00
  0.28999E-01  0.11137E+03    0.29000E-01 -0.13837E-01 -0.15163E-01  0.00000E+00  0.00000E+00  0.00000E+00    0.11137E+03  0.00000E+00  0.00000E+00 -0.23406E+00  0.18377E+00  0.29208E+00
  0.29999E-01  0.11187E+03    0.30000E-01 -0.14313E-01 -0.15687E-01  0.00000E+00  0.00000E+00  0.00000E+00    0.11187E+03  0.00000E+00  0.00000E+00 -0.23385E+00  0.18561E+00  0.29273E+00
  0.30999E-01  0.11236E+03    0.31000E-01 -0.14790E-01 -0.16210E-01  0.00000E+00  0.00000E+00  0.00000E+00    0.11236E+03  0.00000E+00  0.00000E+00 -0.23361E+00  0.18746E+00  0.29337E+00
  0.31999E-01  0.11282E+03    0.32000E-01 -0.15266E-01 -0.16734E-01  0.00000E+00  0.00000E+00  0.00000E+00    0.11282E+03  0.00000E+00  0.00000E+00 -0.23634E+00  0.18793E+00  0.29398E+00
  0.32999E-01  0.11334E+03    0.33000E-01 -0.15743E-01 -0.17257E-01  0.00000E+00  0.00000E+00  0.00000E+00    0.11334E+03  0.00000E+00  0.00000E+00 -0.23322E+00  0.19110E+00  0.29460E+00
  0.33999E-01  0.11380E+03    0.34000E-01 -0.16219E-01 -0.17781E-01  0.00000E+00  0.00000E+00  0.00000E+00    0.11379E+03  0.00000E+00  0.00000E+00 -0.23571E+00  0.19169E+00  0.29524E+00
  0.34999E-01  0.11428E+03    0.35000E-01 -0.16696E-01 -0.18304E-01  0.00000E+00  0.00000E+00  0.00000E+00    0.11428E+03  0.00000E+00  0.00000E+00 -0.23542E+00  0.19354E+00  0.29586E+00
  0.35999E-01  0.11477E+03    0.36000E-01 -0.17172E-01 -0.18828E-01  0.00000E+00  0.00000E+00  0.00000E+00    0.11476E+03  0.00000E+00  0.00000E+00 -0.23502E+00  0.19546E+00  0.29648E+00
  0.36999E-01  0.11524E+03    0.37000E-01 -0.17649E-01 -0.19351E-01  0.00000E+00  0.00000E+00  0.00000E+00    0.11524E+03  0.00000E+00  0.00000E+00 -0.23458E+00  0.19742E+00  0.29709E+00
  0.37999E-01  0.11572E+03    0.38000E-01 -0.18125E-01 -0.19875E-01  0.00000E+00  0.00000E+00  0.00000E+00    0.11572E+03  0.00000E+00  0.00000E+00 -0.23411E+00  0.19939E+00  0.29770E+00
  0.38999E-01  0.11620E+03    0.39000E-01 -0.18602E-01 -0.20398E-01  0.00000E+00  0.00000E+00  0.00000E+00    0.11619E+03  0.00000E+00  0.00000E+00 -0.23360E+00  0.20138E+00  0.29830E+00
  0.39999E-01  0.11667E+03    0.40000E-01 -0.19078E-01 -0.20922E-01  0.00000E+00  0.00000E+00  0.00000E+00    0.11667E+03  0.00000E+00  0.00000E+00 -0.23307E+00  0.20339E+00  0.29890E+00
  0.40999E-01  0.11714E+03    0.41000E-01 -0.19554E-01 -0.21446E-01  0.00000E+00  0.00000E+00  0.00000E+00    0.11713E+03  0.00000E+00  0.00000E+00 -0.23250E+00  0.20542E+00  0.29950E+00
  0.41999E-01  0.11763E+03    0.42000E-01 -0.20031E-01 -0.21969E-01  0.00000E+00  0.00000E+00  0.00000E+00    0.11762E+03  0.00000E+00  0.00000E+00 -0.22898E+00  0.20891E+00  0.30002E+00
  0.42999E-01  0.11806E+03    0.43000E-01 -0.20507E-01 -0.22493E-01  0.00000E+00  0.00000E+00  0.00000E+00    0.11806E+03  0.00000E+00  0.00000E+00 -0.23120E+00  0.20960E+00  0.30068E+00
  0.43999E-01  0.11855E+03    0.44000E-01 -0.20983E-01 -0.23017E-01  0.00000E+00  0.00000E+00  0.00000E+00    0.11855E+03  0.00000E+00  0.00000E+00 -0.22769E+00  0.21309E+00  0.30118E+00
  0.44999E-01  0.11898E+03    0.45000E-01 -0.21459E-01 -0.23541E-01  0.00000E+00  0.00000E+00  0.00000E+00    0.11898E+03  0.00000E+00  0.00000E+00 -0.22984E+00  0.21378E+00  0.30185E+00
  0.45999E-01  0.11946E+03    0.46000E-01 -0.21936E-01 -0.24064E-01  0.00000E+00  0.00000E+00  0.00000E+00    0.11946E+03  0.00000E+00  0.00000E+00 -0.22628E+00  0.21735E+00  0.30232E+00
  0.46999E-01  0.11989E+03    0.47000E-01 -0.22412E-01 -0.24588E-01  0.00000E+00  0.00000E+00  0.00000E+00    0.11989E+03  0.00000E+00  0.00000E+00 -0.22836E+00  0.21803E+00  0.30300E+00
  0.47999E-01  0.12033E+03    0.48000E-01 -0.22888E-01 -0.25112E-01  0.00000E+00  0.00000E+00  0.00000E+00    0.12033E+03  0.00000E+00  0.00000E+00 -0.22798E+00  0.21998E+00  0.30354E+00
  0.48999E-01  0.12079E+03    0.49000E-01 -0.23364E-01 -0.25636E-01  0.00000E+00  0.00000E+00  0.00000E+00    0.12079E+03  0.00000E+00  0.00000E+00 -0.22685E+00  0.22227E+00  0.30414E+00
  0.49999E-01  0.12122E+03    0.50000E-01 -0.23840E-01 -0.26160E-01  0.00000E+00  0.00000E+00  0.00000E+00    0.12122E+03  0.00000E+00  0.00000E+00 -0.22634E+00  0.22433E+00  0.30468E+00
  0.50999E-01  0.12168E+03    0.51000E-01 -0.24316E-01 -0.26684E-01  0.00000E+00  0.00000E+00  0.00000E+00    0.12168E+03  0.00000E+00  0.00000E+00 -0.22515E+00  0.22666E+00  0.30527E+00
  0.51999E-01  0.12211E+03    0.52000E-01 -0.24792E-01 -0.27208E-01  0.00000E+00  0.00000E+00  0.00000E+00    0.12211E+03  0.00000E+00  0.00000E+00 -0.22458E+00  0.22874E+00  0.30580E+00
  0.52999E-01  0.12256E+03    0.53000E-01 -0.25268E-01 -0.27732E-01  0.00000E+00  0.00000E+00  0.00000E+00    0.12256E+03  0.00000E+00  0.00000E+00 -0.22334E+00  0.23112E+00  0.30639E+00
  0.53999E-01  0.12298E+03    0.54000E-01 -0.25744E-01 -0.28256E-01  0.00000E+00  0.00000E+00  0.00000E+00    0.12298E+03  0.00000E+00  0.00000E+00 -0.22271E+00  0.23322E+00  0.30693E+00
  0.54999E-01  0.12341E+03    0.55000E-01 -0.26220E-01 -0.28780E-01  0.00000E+00  0.00000E+00  0.00000E+00    0.12341E+03  0.00000E+00  0.00000E+00 -0.22179E+00  0.23547E+00  0.30748E+00
  0.55999E-01  0.12386E+03    0.56000E-01 -0.26696E-01 -0.29304E-01  0.00000E+00  0.00000E+00  0.00000E+00    0.12386E+03  0.00000E+00  0.00000E+00 -0.22041E+00  0.23792E+00  0.30806E+00
  0.56999E-01  0.12427E+03    0.57000E-01 -0.27172E-01 -0.29828E-01  0.00000E+00  0.00000E+00  0.00000E+00    0.12427E+03  0.00000E+00  0.00000E+00 -0.21970E+00  0.24007E+00  0.30860E+00
  0.57999E-01  0.12470E+03    0.58000E-01 -0.27648E-01 -0.30352E-01  0.00000E+00  0.00000E+00  0.00000E+00    0.12470E+03  0.00000E+00  0.00000E+00 -0.21871E+00  0.24236E+00  0.30916E+00
  0.58999E-01  0.12512E+03    0.59000E-01 -0.28124E-01 -0.30876E-01  0.00000E+00  0.00000E+00  0.00000E+00    0.12512E+03  0.00000E+00  0.00000E+00 -0.21764E+00  0.24469E+00  0.30971E+00
  0.59999E-01  0.12554E+03    0.60000E-01 -0.28600E-01 -0.31400E-01  0.00000E+00  0.00000E+00  0.00000E+00    0.12554E+03  0.00000E+00  0.00000E+00 -0.21653E+00  0.24703E+00  0.31026E+00
  0.60999E-01  0.12596E+03    0.61000E-01 -0.29075E-01 -0.31925E-01  0.00000E+00  0.00000E+00  0.00000E+00    0.12596E+03  0.00000E+00  0.00000E+00 -0.21540E+00  0.24939E+00  0.31081E+00
  0.61999E-01  0.12638E+03    0.62000E-01 -0.29551E-01 -0.32449E-01  0.00000E+00  0.00000E+00  0.00000E+00    0.12638E+03  0.00000E+00  0.00000E+00 -0.21425E+00  0.25177E+00  0.31137E+00
  0.62999E-01  0.12679E+03    0.63000E-01 -0.30027E-01 -0.32973E-01  0.00000E+00  0.00000E+00  0.00000E+00    0.12679E+03  0.00000E+00  0.00000E+00 -0.21307E+00  0.25416E+00  0.31193E+00
  0.63999E-01  0.12720E+03    0.64000E-01 -0.30503E-01 -0.33497E-01  0.00000E+00  0.00000E+00  0.00000E+00    0.12720E+03  0.00000E+00  0.00000E+00 -0.21186E+00  0.25656E+00  0.31248E+00
  0.64999E-01  0.12761E+03    0.65000E-01 -0.30978E-01 -0.34022E-01  0.00000E+00  0.00000E+00  0.00000E+00    0.12761E+03  0.00000E+00  0.00000E+00 -0.21063E+00  0.25899E+00  0.31304E+00
  0.65999E-01  0.12802E+03    0.66000E-01 -0.31454E-01 -0.34546E-01  0.00000E+00  0.00000E+00  0.00000E+00    0.12802E+03  0.00000E+00  0.00000E+00 -0.20937E+00  0.26142E+00  0.31360E+00
  0.66999E-01  0.12843E+03    0.67000E-01 -0.31930E-01 -0.35070E-01  0.00000E+00  0.00000E+00  0.00000E+00    0.12842E+03  0.00000E+00  0.00000E+00 -0.20809E+00  0.26387E+00  0.31417E+00
  0.67999E-01  0.12883E+03    0.68000E-01 -0.32405E-01 -0.35595E-01  0.00000E+00  0.00000E+00  0.00000E+00    0.12883E+03  0.00000E+00  0.00000E+00 -0.20679E+00  0.26634E+00  0.31473E+00
  0.68999E-01  0.12923E+03    0.69000E-01 -0.32881E-01 -0.36119E-01  0.00000E+00  0.00000E+00  0.00000E+00    0.12923E+03  0.00000E+00  0.00000E+00 -0.20547E+00  0.26882E+00  0.31529E+00
  0.69999E-01  0.12963E+03    0.70000E-01 -0.33356E-01 -0.36644E-01  0.00000E+00  0.00000E+00  0.00000E+00    0.12963E+03  0.00000E+00  0.00000E+00 -0.20413E+00  0.27132E+00  0.31586E+00
  0.70999E-01  0.13003E+03    0.71000E-01 -0.33832E-01 -0.37168E-01  0.00000E+00  0.00000E+00  0.00000E+00    0.13002E+03  0.00000E+00  0.00000E+00 -0.20276E+00  0.27383E+00  0.31643E+00
  0.71999E-01  0.13042E+03    0.72000E-01 -0.34307E-01 -0.37693E-01  0.00000E+00  0.00000E+00  0.00000E+00    0.13042E+03  0.00000E+00  0.00000E+00 -0.20137E+00  0.27636E+00  0.31701E+00
  0.72998E-01  0.13081E+03    0.73000E-01 -0.34783E-01 -0.38217E-01  0.00000E+00  0.00000E+00  0.00000E+00    0.13081E+03  0.00000E+00  0.00000E+00 -0.19995E+00  0.27890E+00  0.31759E+00
  0.73998E-01  0.13121E+03    0.74000E-01 -0.35258E-01 -0.38742E-01  0.00000E+00  0.00000E+00  0.00000E+00    0.13121E+03  0.00000E+00  0.00000E+00 -0.19168E+00  0.28447E+00  0.31822E+00
  0.74998E-01  0.13157E+03    0.75000E-01 -0.35734E-01 -0.39266E-01  0.00000E+00  0.00000E+00  0.00000E+00    0.13157E+03  0.00000E+00  0.00000E+00 -0.19201E+00  0.28671E+00  0.31886E+00
  0.75998E-01  0.13195E+03    0.76000E-01 -0.36209E-01 -0.39791E-01  0.00000E+00  0.00000E+00  0.00000E+00    0.13195E+03  0.00000E+00  0.00000E+00 -0.19025E+00  0.28940E+00  0.31948E+00
  0.76998E-01  0.13233E+03    0.77000E-01 -0.36685E-01 -0.40315E-01  0.00000E+00  0.00000E+00  0.00000E+00    0.13233E+03  0.00000E+00  0.00000E+00 -0.18875E+00  0.29203E+00  0.32008E+00
  0.77998E-01  0.13272E+03    0.78000E-01 -0.37160E-01 -0.40840E-01  0.00000E+00  0.00000E+00  0.00000E+00    0.13271E+03  0.00000E+00  0.00000E+00 -0.18723E+00  0.29468E+00  0.32069E+00
  0.78998E-01  0.13315E+03    0.79000E-01 -0.37635E-01 -0.41365E-01  0.00000E+00  0.00000E+00  0.00000E+00    0.13315E+03  0.00000E+00  0.00000E+00 -0.18415E+00  0.29793E+00  0.32123E+00
  0.79998E-01  0.13354E+03    0.80000E-01 -0.38111E-01 -0.41889E-01  0.00000E+00  0.00000E+00  0.00000E+00    0.13353E+03  0.00000E+00  0.00000E+00 -0.18300E+00  0.30053E+00  0.32182E+00
  0.80998E-01  0.13391E+03    0.81000E-01 -0.38586E-01 -0.42414E-01  0.00000E+00  0.00000E+00  0.00000E+00    0.13391E+03  0.00000E+00  0.00000E+00 -0.18142E+00  0.30323E+00  0.32244E+00
  0.81998E-01  0.13429E+03    0.82000E-01 -0.39061E-01 -0.42939E-01  0.00000E+00  0.00000E+00  0.00000E+00    0.13428E+03  0.00000E+00  0.00000E+00 -0.17981E+00  0.30595E+00  0.32307E+00
  0.82998E-01  0.13466E+03    0.83000E-01 -0.39536E-01 -0.43464E-01  0.00000E+00  0.00000E+00  0.00000E+00    0.13466E+03  0.00000E+00  0.00000E+00 -0.17818E+00  0.30868E+00  0.32370E+00
  0.83998E-01  0.13503E+03    0.84000E-01 -0.40011E-01 -0.43989E-01  0.00000E+00  0.00000E+00  0.00000E+00    0.13503E+03  0.00000E+00  0.00000E+00 -0.17654E+00  0.31143E+00  0.32435E+00
  0.84998E-01  0.13540E+03    0.85000E-01 -0.40486E-01 -0.44514E-01  0.00000E+00  0.00000E+00  0.00000E+00    0.13539E+03  0.00000E+00  0.00000E+00 -0.17488E+00  0.31419E+00  0.32500E+00
  0.85998E-01  0.13576E+03    0.86000E-01 -0.40962E-01 -0.45038E-01  0.00000E+00  0.00000E+00  0.00000E+00    0.13576E+03  0.00000E+00  0.00000E+00 -0.17320E+00  0.31698E+00  0.32566E+00
  0.86998E-01  0.13613E+03    0.87000E-01 -0.41437E-01 -0.45563E-01  0.00000E+00  0.00000E+00  0.00000E+00    0.13613E+03  0.00000E+00  0.00000E+00 -0.17151E+00  0.31977E+00  0.32633E+00
  0.87998E-01  0.13649E+03    0.88000E-01 -0.41912E-01 -0.46088E-01  0.00000E+00  0.00000E+00  0.00000E+00    0.13649E+03  0.00000E+00  0.00000E+00 -0.16979E+00  0.32259E+00  0.32700E+00
  0.88998E-01  0.13685E+03    0.89000E-01 -0.42387E-01 -0.46613E-01  0.00000E+00  0.00000E+00  0.00000E+00    0.13685E+03  0.00000E+00  0.00000E+00 -0.16806E+00  0.32543E+00  0.32769E+00
  0.89998E-01  0.13721E+03    0.90000E-01 -0.42862E-01 -0.47138E-01  0.00000E+00  0.00000E+00  0.00000E+00    0.13721E+03  0.00000E+00  0.00000E+00 -0.16631E+00  0.32828E+00  0.32839E+00
  0.90998E-01  0.13757E+03    0.91000E-01 -0.43337E-01 -0.47663E-01  0.00000E+00  0.00000E+00  0.00000E+00    0.13757E+03  0.00000E+00  0.00000E+00 -0.16454E+00  0.33115E+00  0.32910E+00
  0.91998E-01  0.13792E+03    0.92000E-01 -0.43812E-01 -0.48188E-01  0.00000E+00  0.00000E+00  0.00000E+00    0.13792E+03  0.00000E+00  0.00000E+00 -0.16275E+00  0.33404E+00  0.32982E+00
  0.92998E-01  0.13828E+03    0.93000E-01 -0.44287E-01 -0.48713E-01  0.00000E+00  0.00000E+00  0.00000E+00    0.13828E+03  0.00000E+00  0.00000E+00 -0.16095E+00  0.33694E+00  0.33055E+00
  0.93998E-01  0.13863E+03    0.94000E-01 -0.44762E-01 -0.49238E-01  0.00000E+00  0.00000E+00  0.00000E+00    0.13863E+03  0.00000E+00  0.00000E+00 -0.15913E+00  0.33986E+00  0.33130E+00
  0.94998E-01  0.13898E+03    0.95000E-01 -0.45236E-01 -0.49764E-01  0.00000E+00  0.00000E+00  0.00000E+00    0.13898E+03  0.00000E+00  0.00000E+00 -0.15729E+00  0.34281E+00  0.33205E+00
  0.95998E-01  0.13933E+03    0.96000E-01 -0.45711E-01 -0.50289E-01  0.00000E+00  0.00000E+00  0.00000E+00    0.13933E+03  0.00000E+00  0.00000E+00 -0.15544E+00  0.34577E+00  0.33282E+00
  0.96998E-01  0.13968E+03    0.97000E-01 -0.46186E-01 -0.50814E-01  0.00000E+00  0.00000E+00  0.00000E+00    0.13967E+03  0.00000E+00  0.00000E+00 -0.15358E+00  0.34875E+00  0.33360E+00
  0.97998E-01  0.14002E+03    0.98000E-01 -0.46661E-01 -0.51339E-01  0.00000E+00  0.00000E+00  0.00000E+00    0.14002E+03  0.00000E+00  0.00000E+00 -0.15169E+00  0.35175E+00  0.33440E+00
  0.98998E-01  0.14036E+03    0.99000E-01 -0.47136E-01 -0.51864E-01  0.00000E+00  0.00000E+00  0.00000E+00    0.14036E+03  0.00000E+00  0.00000E+00 -0.14979E+00  0.35477E+00  0.33521E+00
  0.99998E-01  0.14071E+03    0.10000E+00 -0.47611E-01 -0.52389E-01  0.00000E+00  0.00000E+00  0.00000E+00    0.14070E+03  0.00000E+00  0.00000E+00 -0.14788E+00  0.35781E+00  0.33603E+00
