          Evm          Svm            E11          E22          E33          E23          E13          E12         SCAU11       SCAU22       SCAU33       SCAU23       SCAU13       SCAU12      TEMP
  0.00000E+00  0.85906E+02    0.00000E+00  0.00000E+00  0.00000E+00  0.00000E+00  0.00000E+00  0.00000E+00    0.85905E+02  0.00000E+00  0.00000E+00 -0.19924E+00  0.12353E+00  0.23737E+00
  0.99998E-03  0.86469E+02    0.10000E-02 -0.47967E-03 -0.52033E-03  0.00000E+00  0.00000E+00  0.00000E+00    0.86467E+02  0.00000E+00  0.00000E+00 -0.20369E+00  0.12651E+00  0.24053E+00
  0.20000E-02  0.87000E+02    0.20000E-02 -0.95784E-03 -0.10422E-02  0.00000E+00  0.00000E+00  0.00000E+00    0.86998E+02  0.00000E+00  0.00000E+00 -0.20403E+00  0.12754E+00  0.24264E+00
  0.29999E-02  0.87587E+02    0.30000E-02 -0.14356E-02 -0.15644E-02  0.00000E+00  0.00000E+00  0.00000E+00    0.87585E+02  0.00000E+00  0.00000E+00 -0.20512E+00  0.12868E+00  0.24409E+00
  0.39999E-02  0.88171E+02    0.40000E-02 -0.19132E-02 -0.20868E-02  0.00000E+00  0.00000E+00  0.00000E+00    0.88169E+02  0.00000E+00  0.00000E+00 -0.20606E+00  0.12984E+00  0.24530E+00
  0.49999E-02  0.88742E+02    0.50000E-02 -0.23906E-02 -0.26094E-02  0.00000E+00  0.00000E+00  0.00000E+00    0.88740E+02  0.00000E+00  0.00000E+00 -0.20504E+00  0.13186E+00  0.24640E+00
  0.59999E-02  0.89327E+02    0.60000E-02 -0.28678E-02 -0.31322E-02  0.00000E+00  0.00000E+00  0.00000E+00    0.89325E+02  0.00000E+00  0.00000E+00 -0.20591E+00  0.13321E+00  0.24748E+00
  0.69998E-02  0.89901E+02    0.70000E-02 -0.33451E-02 -0.36549E-02  0.00000E+00  0.00000E+00  0.00000E+00    0.89899E+02  0.00000E+00  0.00000E+00 -0.20672E+00  0.13447E+00  0.24848E+00
  0.79998E-02  0.90471E+02    0.80000E-02 -0.38222E-02 -0.41778E-02  0.00000E+00  0.00000E+00  0.00000E+00    0.90469E+02  0.00000E+00  0.00000E+00 -0.20748E+00  0.13575E+00  0.24944E+00
  0.89998E-02  0.91038E+02    0.90000E-02 -0.42994E-02 -0.47006E-02  0.00000E+00  0.00000E+00  0.00000E+00    0.91036E+02  0.00000E+00  0.00000E+00 -0.20820E+00  0.13705E+00  0.25038E+00
  0.99998E-02  0.91601E+02    0.10000E-01 -0.47764E-02 -0.52236E-02  0.00000E+00  0.00000E+00  0.00000E+00    0.91599E+02  0.00000E+00  0.00000E+00 -0.20888E+00  0.13837E+00  0.25130E+00
  0.11000E-01  0.92161E+02    0.11000E-01 -0.52535E-02 -0.57465E-02  0.00000E+00  0.00000E+00  0.00000E+00    0.92159E+02  0.00000E+00  0.00000E+00 -0.20951E+00  0.13972E+00  0.25220E+00
  0.12000E-01  0.92717E+02    0.12000E-01 -0.57305E-02 -0.62695E-02  0.00000E+00  0.00000E+00  0.00000E+00    0.92715E+02  0.00000E+00  0.00000E+00 -0.21010E+00  0.14109E+00  0.25308E+00
  0.13000E-01  0.93270E+02    0.13000E-01 -0.62075E-02 -0.67925E-02  0.00000E+00  0.00000E+00  0.00000E+00    0.93268E+02  0.00000E+00  0.00000E+00 -0.21066E+00  0.14248E+00  0.25395E+00
  0.14000E-01  0.93820E+02    0.14000E-01 -0.66845E-02 -0.73155E-02  0.00000E+00  0.00000E+00  0.00000E+00    0.93818E+02  0.00000E+00  0.00000E+00 -0.21117E+00  0.14389E+00  0.25481E+00
  0.15000E-01  0.94366E+02    0.15000E-01 -0.71615E-02 -0.78385E-02  0.00000E+00  0.00000E+00  0.00000E+00    0.94364E+02  0.00000E+00  0.00000E+00 -0.21163E+00  0.14532E+00  0.25565E+00
  0.16000E-01  0.94909E+02    0.16000E-01 -0.76384E-02 -0.83616E-02  0.00000E+00  0.00000E+00  0.00000E+00    0.94907E+02  0.00000E+00  0.00000E+00 -0.21206E+00  0.14678E+00  0.25648E+00
  0.17000E-01  0.95449E+02    0.17000E-01 -0.81153E-02 -0.88847E-02  0.00000E+00  0.00000E+00  0.00000E+00    0.95446E+02  0.00000E+00  0.00000E+00 -0.21245E+00  0.14826E+00  0.25731E+00
  0.18000E-01  0.95985E+02    0.18000E-01 -0.85922E-02 -0.94078E-02  0.00000E+00  0.00000E+00  0.00000E+00    0.95983E+02  0.00000E+00  0.00000E+00 -0.21280E+00  0.14975E+00  0.25811E+00
  0.19000E-01  0.96518E+02    0.19000E-01 -0.90691E-02 -0.99309E-02  0.00000E+00  0.00000E+00  0.00000E+00    0.96516E+02  0.00000E+00  0.00000E+00 -0.21311E+00  0.15127E+00  0.25891E+00
  0.20000E-01  0.97048E+02    0.20000E-01 -0.95459E-02 -0.10454E-01  0.00000E+00  0.00000E+00  0.00000E+00    0.97046E+02  0.00000E+00  0.00000E+00 -0.21339E+00  0.15282E+00  0.25970E+00
  0.21000E-01  0.97575E+02    0.21000E-01 -0.10023E-01 -0.10977E-01  0.00000E+00  0.00000E+00  0.00000E+00    0.97573E+02  0.00000E+00  0.00000E+00 -0.21362E+00  0.15438E+00  0.26048E+00
  0.22000E-01  0.98098E+02    0.22000E-01 -0.10500E-01 -0.11500E-01  0.00000E+00  0.00000E+00  0.00000E+00    0.98096E+02  0.00000E+00  0.00000E+00 -0.21382E+00  0.15596E+00  0.26125E+00
  0.22999E-01  0.98619E+02    0.23000E-01 -0.10976E-01 -0.12024E-01  0.00000E+00  0.00000E+00  0.00000E+00    0.98617E+02  0.00000E+00  0.00000E+00 -0.21397E+00  0.15756E+00  0.26200E+00
  0.23999E-01  0.99136E+02    0.24000E-01 -0.11453E-01 -0.12547E-01  0.00000E+00  0.00000E+00  0.00000E+00    0.99134E+02  0.00000E+00  0.00000E+00 -0.21409E+00  0.15919E+00  0.26276E+00
  0.24999E-01  0.99650E+02    0.25000E-01 -0.11930E-01 -0.13070E-01  0.00000E+00  0.00000E+00  0.00000E+00    0.99648E+02  0.00000E+00  0.00000E+00 -0.21418E+00  0.16084E+00  0.26350E+00
  0.25999E-01  0.10016E+03    0.26000E-01 -0.12406E-01 -0.13594E-01  0.00000E+00  0.00000E+00  0.00000E+00    0.10016E+03  0.00000E+00  0.00000E+00 -0.21422E+00  0.16250E+00  0.26423E+00
  0.26999E-01  0.10067E+03    0.27000E-01 -0.12883E-01 -0.14117E-01  0.00000E+00  0.00000E+00  0.00000E+00    0.10067E+03  0.00000E+00  0.00000E+00 -0.21424E+00  0.16419E+00  0.26496E+00
  0.27999E-01  0.10117E+03    0.28000E-01 -0.13360E-01 -0.14640E-01  0.00000E+00  0.00000E+00  0.00000E+00    0.10117E+03  0.00000E+00  0.00000E+00 -0.21421E+00  0.16589E+00  0.26567E+00
  0.28999E-01  0.10168E+03    0.29000E-01 -0.13836E-01 -0.15164E-01  0.00000E+00  0.00000E+00  0.00000E+00    0.10167E+03  0.00000E+00  0.00000E+00 -0.21415E+00  0.16761E+00  0.26638E+00
  0.29999E-01  0.10218E+03    0.30000E-01 -0.14313E-01 -0.15687E-01  0.00000E+00  0.00000E+00  0.00000E+00    0.10217E+03  0.00000E+00  0.00000E+00 -0.21405E+00  0.16936E+00  0.26709E+00
  0.30999E-01  0.10267E+03    0.31000E-01 -0.14790E-01 -0.16210E-01  0.00000E+00  0.00000E+00  0.00000E+00    0.10267E+03  0.00000E+00  0.00000E+00 -0.21392E+00  0.17113E+00  0.26778E+00
  0.31999E-01  0.10317E+03    0.32000E-01 -0.15266E-01 -0.16734E-01  0.00000E+00  0.00000E+00  0.00000E+00    0.10316E+03  0.00000E+00  0.00000E+00 -0.21376E+00  0.17291E+00  0.26847E+00
  0.32999E-01  0.10366E+03    0.33000E-01 -0.15743E-01 -0.17257E-01  0.00000E+00  0.00000E+00  0.00000E+00    0.10365E+03  0.00000E+00  0.00000E+00 -0.21356E+00  0.17471E+00  0.26915E+00
  0.33999E-01  0.10414E+03    0.34000E-01 -0.16219E-01 -0.17781E-01  0.00000E+00  0.00000E+00  0.00000E+00    0.10414E+03  0.00000E+00  0.00000E+00 -0.21333E+00  0.17653E+00  0.26982E+00
  0.34999E-01  0.10463E+03    0.35000E-01 -0.16696E-01 -0.18304E-01  0.00000E+00  0.00000E+00  0.00000E+00    0.10463E+03  0.00000E+00  0.00000E+00 -0.21307E+00  0.17837E+00  0.27049E+00
  0.35999E-01  0.10511E+03    0.36000E-01 -0.17172E-01 -0.18828E-01  0.00000E+00  0.00000E+00  0.00000E+00    0.10511E+03  0.00000E+00  0.00000E+00 -0.21277E+00  0.18023E+00  0.27115E+00
  0.36999E-01  0.10559E+03    0.37000E-01 -0.17649E-01 -0.19351E-01  0.00000E+00  0.00000E+00  0.00000E+00    0.10559E+03  0.00000E+00  0.00000E+00 -0.21244E+00  0.18211E+00  0.27181E+00
  0.37999E-01  0.10607E+03    0.38000E-01 -0.18125E-01 -0.19875E-01  0.00000E+00  0.00000E+00  0.00000E+00    0.10606E+03  0.00000E+00  0.00000E+00 -0.21208E+00  0.18400E+00  0.27246E+00
  0.38999E-01  0.10654E+03    0.39000E-01 -0.18601E-01 -0.20399E-01  0.00000E+00  0.00000E+00  0.00000E+00    0.10654E+03  0.00000E+00  0.00000E+00 -0.21169E+00  0.18592E+00  0.27310E+00
  0.39999E-01  0.10701E+03    0.40000E-01 -0.19078E-01 -0.20922E-01  0.00000E+00  0.00000E+00  0.00000E+00    0.10701E+03  0.00000E+00  0.00000E+00 -0.21126E+00  0.18785E+00  0.27374E+00
  0.40999E-01  0.10748E+03    0.41000E-01 -0.19554E-01 -0.21446E-01  0.00000E+00  0.00000E+00  0.00000E+00    0.10748E+03  0.00000E+00  0.00000E+00 -0.21081E+00  0.18980E+00  0.27438E+00
  0.41999E-01  0.10791E+03    0.42000E-01 -0.20030E-01 -0.21970E-01  0.00000E+00  0.00000E+00  0.00000E+00    0.10791E+03  0.00000E+00  0.00000E+00 -0.21336E+00  0.19022E+00  0.27501E+00
  0.42999E-01  0.10840E+03    0.43000E-01 -0.20507E-01 -0.22493E-01  0.00000E+00  0.00000E+00  0.00000E+00    0.10840E+03  0.00000E+00  0.00000E+00 -0.21001E+00  0.19360E+00  0.27560E+00
  0.43999E-01  0.10883E+03    0.44000E-01 -0.20983E-01 -0.23017E-01  0.00000E+00  0.00000E+00  0.00000E+00    0.10883E+03  0.00000E+00  0.00000E+00 -0.21231E+00  0.19415E+00  0.27627E+00
  0.44999E-01  0.10929E+03    0.45000E-01 -0.21459E-01 -0.23541E-01  0.00000E+00  0.00000E+00  0.00000E+00    0.10929E+03  0.00000E+00  0.00000E+00 -0.21182E+00  0.19607E+00  0.27689E+00
  0.45999E-01  0.10975E+03    0.46000E-01 -0.21935E-01 -0.24065E-01  0.00000E+00  0.00000E+00  0.00000E+00    0.10974E+03  0.00000E+00  0.00000E+00 -0.21122E+00  0.19808E+00  0.27751E+00
  0.46999E-01  0.11020E+03    0.47000E-01 -0.22412E-01 -0.24588E-01  0.00000E+00  0.00000E+00  0.00000E+00    0.11020E+03  0.00000E+00  0.00000E+00 -0.21060E+00  0.20011E+00  0.27813E+00
  0.47999E-01  0.11065E+03    0.48000E-01 -0.22888E-01 -0.25112E-01  0.00000E+00  0.00000E+00  0.00000E+00    0.11065E+03  0.00000E+00  0.00000E+00 -0.20994E+00  0.20215E+00  0.27874E+00
  0.48999E-01  0.11110E+03    0.49000E-01 -0.23364E-01 -0.25636E-01  0.00000E+00  0.00000E+00  0.00000E+00    0.11109E+03  0.00000E+00  0.00000E+00 -0.20926E+00  0.20421E+00  0.27935E+00
  0.49999E-01  0.11154E+03    0.50000E-01 -0.23840E-01 -0.26160E-01  0.00000E+00  0.00000E+00  0.00000E+00    0.11154E+03  0.00000E+00  0.00000E+00 -0.20854E+00  0.20629E+00  0.27996E+00
  0.50999E-01  0.11198E+03    0.51000E-01 -0.24316E-01 -0.26684E-01  0.00000E+00  0.00000E+00  0.00000E+00    0.11198E+03  0.00000E+00  0.00000E+00 -0.20780E+00  0.20838E+00  0.28056E+00
  0.51999E-01  0.11244E+03    0.52000E-01 -0.24792E-01 -0.27208E-01  0.00000E+00  0.00000E+00  0.00000E+00    0.11244E+03  0.00000E+00  0.00000E+00 -0.20415E+00  0.21206E+00  0.28105E+00
  0.52999E-01  0.11286E+03    0.53000E-01 -0.25268E-01 -0.27732E-01  0.00000E+00  0.00000E+00  0.00000E+00    0.11286E+03  0.00000E+00  0.00000E+00 -0.20619E+00  0.21269E+00  0.28177E+00
  0.53999E-01  0.11331E+03    0.54000E-01 -0.25744E-01 -0.28256E-01  0.00000E+00  0.00000E+00  0.00000E+00    0.11331E+03  0.00000E+00  0.00000E+00 -0.20255E+00  0.21636E+00  0.28223E+00
  0.54999E-01  0.11373E+03    0.55000E-01 -0.26220E-01 -0.28780E-01  0.00000E+00  0.00000E+00  0.00000E+00    0.11372E+03  0.00000E+00  0.00000E+00 -0.20452E+00  0.21698E+00  0.28297E+00
  0.55999E-01  0.11415E+03    0.56000E-01 -0.26696E-01 -0.29304E-01  0.00000E+00  0.00000E+00  0.00000E+00    0.11414E+03  0.00000E+00  0.00000E+00 -0.20405E+00  0.21893E+00  0.28353E+00
  0.56999E-01  0.11458E+03    0.57000E-01 -0.27172E-01 -0.29828E-01  0.00000E+00  0.00000E+00  0.00000E+00    0.11458E+03  0.00000E+00  0.00000E+00 -0.20283E+00  0.22126E+00  0.28415E+00
  0.57999E-01  0.11500E+03    0.58000E-01 -0.27648E-01 -0.30352E-01  0.00000E+00  0.00000E+00  0.00000E+00    0.11500E+03  0.00000E+00  0.00000E+00 -0.20223E+00  0.22331E+00  0.28472E+00
  0.58999E-01  0.11543E+03    0.59000E-01 -0.28124E-01 -0.30876E-01  0.00000E+00  0.00000E+00  0.00000E+00    0.11543E+03  0.00000E+00  0.00000E+00 -0.20096E+00  0.22567E+00  0.28533E+00
  0.59999E-01  0.11584E+03    0.60000E-01 -0.28600E-01 -0.31400E-01  0.00000E+00  0.00000E+00  0.00000E+00    0.11584E+03  0.00000E+00  0.00000E+00 -0.20031E+00  0.22775E+00  0.28590E+00
  0.60999E-01  0.11627E+03    0.61000E-01 -0.29075E-01 -0.31925E-01  0.00000E+00  0.00000E+00  0.00000E+00    0.11627E+03  0.00000E+00  0.00000E+00 -0.19898E+00  0.23014E+00  0.28651E+00
  0.61999E-01  0.11668E+03    0.62000E-01 -0.29551E-01 -0.32449E-01  0.00000E+00  0.00000E+00  0.00000E+00    0.11667E+03  0.00000E+00  0.00000E+00 -0.19829E+00  0.23225E+00  0.28708E+00
  0.62999E-01  0.11710E+03    0.63000E-01 -0.30027E-01 -0.32973E-01  0.00000E+00  0.00000E+00  0.00000E+00    0.11710E+03  0.00000E+00  0.00000E+00 -0.19691E+00  0.23468E+00  0.28768E+00
  0.63999E-01  0.11750E+03    0.64000E-01 -0.30503E-01 -0.33497E-01  0.00000E+00  0.00000E+00  0.00000E+00    0.11750E+03  0.00000E+00  0.00000E+00 -0.19617E+00  0.23681E+00  0.28826E+00
  0.64999E-01  0.11792E+03    0.65000E-01 -0.30978E-01 -0.34022E-01  0.00000E+00  0.00000E+00  0.00000E+00    0.11792E+03  0.00000E+00  0.00000E+00 -0.19475E+00  0.23927E+00  0.28886E+00
  0.65999E-01  0.11832E+03    0.66000E-01 -0.31454E-01 -0.34546E-01  0.00000E+00  0.00000E+00  0.00000E+00    0.11831E+03  0.00000E+00  0.00000E+00 -0.19396E+00  0.24143E+00  0.28944E+00
  0.66999E-01  0.11872E+03    0.67000E-01 -0.31930E-01 -0.35070E-01  0.00000E+00  0.00000E+00  0.00000E+00    0.11872E+03  0.00000E+00  0.00000E+00 -0.19289E+00  0.24374E+00  0.29004E+00
  0.67999E-01  0.11912E+03    0.68000E-01 -0.32405E-01 -0.35595E-01  0.00000E+00  0.00000E+00  0.00000E+00    0.11912E+03  0.00000E+00  0.00000E+00 -0.19173E+00  0.24608E+00  0.29063E+00
  0.68999E-01  0.11952E+03    0.69000E-01 -0.32881E-01 -0.36119E-01  0.00000E+00  0.00000E+00  0.00000E+00    0.11952E+03  0.00000E+00  0.00000E+00 -0.19055E+00  0.24844E+00  0.29122E+00
  0.69999E-01  0.11992E+03    0.70000E-01 -0.33357E-01 -0.36643E-01  0.00000E+00  0.00000E+00  0.00000E+00    0.11992E+03  0.00000E+00  0.00000E+00 -0.18934E+00  0.25081E+00  0.29182E+00
  0.70999E-01  0.12032E+03    0.71000E-01 -0.33832E-01 -0.37168E-01  0.00000E+00  0.00000E+00  0.00000E+00    0.12032E+03  0.00000E+00  0.00000E+00 -0.18811E+00  0.25320E+00  0.29242E+00
  0.71999E-01  0.12071E+03    0.72000E-01 -0.34308E-01 -0.37692E-01  0.00000E+00  0.00000E+00  0.00000E+00    0.12071E+03  0.00000E+00  0.00000E+00 -0.18685E+00  0.25561E+00  0.29302E+00
  0.72998E-01  0.12110E+03    0.73000E-01 -0.34783E-01 -0.38217E-01  0.00000E+00  0.00000E+00  0.00000E+00    0.12110E+03  0.00000E+00  0.00000E+00 -0.18558E+00  0.25802E+00  0.29362E+00
  0.73998E-01  0.12149E+03    0.74000E-01 -0.35259E-01 -0.38741E-01  0.00000E+00  0.00000E+00  0.00000E+00    0.12149E+03  0.00000E+00  0.00000E+00 -0.18428E+00  0.26046E+00  0.29423E+00
  0.74998E-01  0.12188E+03    0.75000E-01 -0.35734E-01 -0.39266E-01  0.00000E+00  0.00000E+00  0.00000E+00    0.12188E+03  0.00000E+00  0.00000E+00 -0.18297E+00  0.26291E+00  0.29484E+00
  0.75998E-01  0.12227E+03    0.76000E-01 -0.36209E-01 -0.39791E-01  0.00000E+00  0.00000E+00  0.00000E+00    0.12226E+03  0.00000E+00  0.00000E+00 -0.18163E+00  0.26537E+00  0.29545E+00
  0.76998E-01  0.12265E+03    0.77000E-01 -0.36685E-01 -0.40315E-01  0.00000E+00  0.00000E+00  0.00000E+00    0.12265E+03  0.00000E+00  0.00000E+00 -0.18028E+00  0.26785E+00  0.29607E+00
  0.77998E-01  0.12303E+03    0.78000E-01 -0.37160E-01 -0.40840E-01  0.00000E+00  0.00000E+00  0.00000E+00    0.12303E+03  0.00000E+00  0.00000E+00 -0.17890E+00  0.27034E+00  0.29670E+00
  0.78998E-01  0.12341E+03    0.79000E-01 -0.37636E-01 -0.41364E-01  0.00000E+00  0.00000E+00  0.00000E+00    0.12341E+03  0.00000E+00  0.00000E+00 -0.17750E+00  0.27285E+00  0.29733E+00
  0.79998E-01  0.12379E+03    0.80000E-01 -0.38111E-01 -0.41889E-01  0.00000E+00  0.00000E+00  0.00000E+00    0.12379E+03  0.00000E+00  0.00000E+00 -0.17608E+00  0.27538E+00  0.29796E+00
  0.80998E-01  0.12416E+03    0.81000E-01 -0.38586E-01 -0.42414E-01  0.00000E+00  0.00000E+00  0.00000E+00    0.12416E+03  0.00000E+00  0.00000E+00 -0.17464E+00  0.27791E+00  0.29860E+00
  0.81998E-01  0.12454E+03    0.82000E-01 -0.39061E-01 -0.42939E-01  0.00000E+00  0.00000E+00  0.00000E+00    0.12454E+03  0.00000E+00  0.00000E+00 -0.16639E+00  0.28363E+00  0.29928E+00
  0.82998E-01  0.12489E+03    0.83000E-01 -0.39537E-01 -0.43463E-01  0.00000E+00  0.00000E+00  0.00000E+00    0.12489E+03  0.00000E+00  0.00000E+00 -0.16669E+00  0.28582E+00  0.30002E+00
  0.83998E-01  0.12525E+03    0.84000E-01 -0.40012E-01 -0.43988E-01  0.00000E+00  0.00000E+00  0.00000E+00    0.12525E+03  0.00000E+00  0.00000E+00 -0.16492E+00  0.28850E+00  0.30070E+00
  0.84998E-01  0.12562E+03    0.85000E-01 -0.40487E-01 -0.44513E-01  0.00000E+00  0.00000E+00  0.00000E+00    0.12562E+03  0.00000E+00  0.00000E+00 -0.16340E+00  0.29113E+00  0.30138E+00
  0.85998E-01  0.12598E+03    0.86000E-01 -0.40962E-01 -0.45038E-01  0.00000E+00  0.00000E+00  0.00000E+00    0.12598E+03  0.00000E+00  0.00000E+00 -0.16187E+00  0.29377E+00  0.30206E+00
  0.86998E-01  0.12635E+03    0.87000E-01 -0.41437E-01 -0.45563E-01  0.00000E+00  0.00000E+00  0.00000E+00    0.12635E+03  0.00000E+00  0.00000E+00 -0.16031E+00  0.29643E+00  0.30274E+00
  0.87998E-01  0.12676E+03    0.88000E-01 -0.41912E-01 -0.46088E-01  0.00000E+00  0.00000E+00  0.00000E+00    0.12676E+03  0.00000E+00  0.00000E+00 -0.15720E+00  0.29975E+00  0.30335E+00
  0.88998E-01  0.12713E+03    0.89000E-01 -0.42387E-01 -0.46613E-01  0.00000E+00  0.00000E+00  0.00000E+00    0.12712E+03  0.00000E+00  0.00000E+00 -0.15600E+00  0.30235E+00  0.30403E+00
  0.89998E-01  0.12749E+03    0.90000E-01 -0.42862E-01 -0.47138E-01  0.00000E+00  0.00000E+00  0.00000E+00    0.12748E+03  0.00000E+00  0.00000E+00 -0.15440E+00  0.30506E+00  0.30473E+00
  0.90998E-01  0.12784E+03    0.91000E-01 -0.43337E-01 -0.47663E-01  0.00000E+00  0.00000E+00  0.00000E+00    0.12784E+03  0.00000E+00  0.00000E+00 -0.15277E+00  0.30779E+00  0.30545E+00
  0.91998E-01  0.12820E+03    0.92000E-01 -0.43812E-01 -0.48188E-01  0.00000E+00  0.00000E+00  0.00000E+00    0.12819E+03  0.00000E+00  0.00000E+00 -0.15113E+00  0.31054E+00  0.30618E+00
  0.92998E-01  0.12855E+03    0.93000E-01 -0.44287E-01 -0.48713E-01  0.00000E+00  0.00000E+00  0.00000E+00    0.12855E+03  0.00000E+00  0.00000E+00 -0.14947E+00  0.31331E+00  0.30692E+00
  0.93998E-01  0.12890E+03    0.94000E-01 -0.44762E-01 -0.49238E-01  0.00000E+00  0.00000E+00  0.00000E+00    0.12890E+03  0.00000E+00  0.00000E+00 -0.14780E+00  0.31609E+00  0.30767E+00
  0.94998E-01  0.12925E+03    0.95000E-01 -0.45237E-01 -0.49763E-01  0.00000E+00  0.00000E+00  0.00000E+00    0.12925E+03  0.00000E+00  0.00000E+00 -0.14611E+00  0.31889E+00  0.30844E+00
  0.95998E-01  0.12960E+03    0.96000E-01 -0.45712E-01 -0.50288E-01  0.00000E+00  0.00000E+00  0.00000E+00    0.12960E+03  0.00000E+00  0.00000E+00 -0.14441E+00  0.32170E+00  0.30921E+00
  0.96998E-01  0.12994E+03    0.97000E-01 -0.46187E-01 -0.50813E-01  0.00000E+00  0.00000E+00  0.00000E+00    0.12994E+03  0.00000E+00  0.00000E+00 -0.14268E+00  0.32454E+00  0.30999E+00
  0.97998E-01  0.13029E+03    0.98000E-01 -0.46662E-01 -0.51338E-01  0.00000E+00  0.00000E+00  0.00000E+00    0.13029E+03  0.00000E+00  0.00000E+00 -0.14095E+00  0.32739E+00  0.31079E+00
  0.98998E-01  0.13063E+03    0.99000E-01 -0.47136E-01 -0.51864E-01  0.00000E+00  0.00000E+00  0.00000E+00    0.13063E+03  0.00000E+00  0.00000E+00 -0.13920E+00  0.33027E+00  0.31160E+00
  0.99998E-01  0.13097E+03    0.10000E+00 -0.47611E-01 -0.52389E-01  0.00000E+00  0.00000E+00  0.00000E+00    0.13097E+03  0.00000E+00  0.00000E+00 -0.13743E+00  0.33316E+00  0.31243E+00
