          Evm          Svm            E11          E22          E33          E23          E13          E12         SCAU11       SCAU22       SCAU33       SCAU23       SCAU13       SCAU12      TEMP
  0.00000E+00  0.82288E+02    0.00000E+00  0.00000E+00  0.00000E+00  0.00000E+00  0.00000E+00  0.00000E+00    0.82286E+02  0.00000E+00  0.00000E+00 -0.19085E+00  0.11832E+00  0.22737E+00
  0.99998E-03  0.82851E+02    0.10000E-02 -0.47967E-03 -0.52033E-03  0.00000E+00  0.00000E+00  0.00000E+00    0.82849E+02  0.00000E+00  0.00000E+00 -0.19528E+00  0.12121E+00  0.23046E+00
  0.20000E-02  0.83382E+02    0.20000E-02 -0.95784E-03 -0.10422E-02  0.00000E+00  0.00000E+00  0.00000E+00    0.83380E+02  0.00000E+00  0.00000E+00 -0.19565E+00  0.12223E+00  0.23254E+00
  0.29999E-02  0.83968E+02    0.30000E-02 -0.14356E-02 -0.15644E-02  0.00000E+00  0.00000E+00  0.00000E+00    0.83966E+02  0.00000E+00  0.00000E+00 -0.19677E+00  0.12336E+00  0.23399E+00
  0.39999E-02  0.84552E+02    0.40000E-02 -0.19132E-02 -0.20868E-02  0.00000E+00  0.00000E+00  0.00000E+00    0.84551E+02  0.00000E+00  0.00000E+00 -0.19774E+00  0.12450E+00  0.23520E+00
  0.49999E-02  0.85133E+02    0.50000E-02 -0.23905E-02 -0.26095E-02  0.00000E+00  0.00000E+00  0.00000E+00    0.85131E+02  0.00000E+00  0.00000E+00 -0.19867E+00  0.12568E+00  0.23632E+00
  0.59999E-02  0.85711E+02    0.60000E-02 -0.28678E-02 -0.31322E-02  0.00000E+00  0.00000E+00  0.00000E+00    0.85709E+02  0.00000E+00  0.00000E+00 -0.19957E+00  0.12689E+00  0.23737E+00
  0.69998E-02  0.86273E+02    0.70000E-02 -0.33451E-02 -0.36549E-02  0.00000E+00  0.00000E+00  0.00000E+00    0.86271E+02  0.00000E+00  0.00000E+00 -0.19847E+00  0.12891E+00  0.23843E+00
  0.79998E-02  0.86851E+02    0.80000E-02 -0.38222E-02 -0.41778E-02  0.00000E+00  0.00000E+00  0.00000E+00    0.86849E+02  0.00000E+00  0.00000E+00 -0.19928E+00  0.13030E+00  0.23942E+00
  0.89998E-02  0.87418E+02    0.90000E-02 -0.42993E-02 -0.47007E-02  0.00000E+00  0.00000E+00  0.00000E+00    0.87416E+02  0.00000E+00  0.00000E+00 -0.20003E+00  0.13159E+00  0.24038E+00
  0.99998E-02  0.87981E+02    0.10000E-01 -0.47764E-02 -0.52236E-02  0.00000E+00  0.00000E+00  0.00000E+00    0.87979E+02  0.00000E+00  0.00000E+00 -0.20074E+00  0.13289E+00  0.24132E+00
  0.11000E-01  0.88540E+02    0.11000E-01 -0.52535E-02 -0.57465E-02  0.00000E+00  0.00000E+00  0.00000E+00    0.88538E+02  0.00000E+00  0.00000E+00 -0.20141E+00  0.13421E+00  0.24224E+00
  0.12000E-01  0.89097E+02    0.12000E-01 -0.57305E-02 -0.62695E-02  0.00000E+00  0.00000E+00  0.00000E+00    0.89095E+02  0.00000E+00  0.00000E+00 -0.20203E+00  0.13555E+00  0.24314E+00
  0.13000E-01  0.89649E+02    0.13000E-01 -0.62075E-02 -0.67925E-02  0.00000E+00  0.00000E+00  0.00000E+00    0.89647E+02  0.00000E+00  0.00000E+00 -0.20262E+00  0.13691E+00  0.24403E+00
  0.14000E-01  0.90199E+02    0.14000E-01 -0.66845E-02 -0.73155E-02  0.00000E+00  0.00000E+00  0.00000E+00    0.90197E+02  0.00000E+00  0.00000E+00 -0.20316E+00  0.13830E+00  0.24491E+00
  0.15000E-01  0.90745E+02    0.15000E-01 -0.71614E-02 -0.78386E-02  0.00000E+00  0.00000E+00  0.00000E+00    0.90743E+02  0.00000E+00  0.00000E+00 -0.20367E+00  0.13971E+00  0.24577E+00
  0.16000E-01  0.91288E+02    0.16000E-01 -0.76384E-02 -0.83616E-02  0.00000E+00  0.00000E+00  0.00000E+00    0.91286E+02  0.00000E+00  0.00000E+00 -0.20413E+00  0.14113E+00  0.24662E+00
  0.17000E-01  0.91827E+02    0.17000E-01 -0.81153E-02 -0.88847E-02  0.00000E+00  0.00000E+00  0.00000E+00    0.91825E+02  0.00000E+00  0.00000E+00 -0.20455E+00  0.14258E+00  0.24746E+00
  0.18000E-01  0.92364E+02    0.18000E-01 -0.85922E-02 -0.94078E-02  0.00000E+00  0.00000E+00  0.00000E+00    0.92361E+02  0.00000E+00  0.00000E+00 -0.20494E+00  0.14405E+00  0.24829E+00
  0.19000E-01  0.92897E+02    0.19000E-01 -0.90690E-02 -0.99310E-02  0.00000E+00  0.00000E+00  0.00000E+00    0.92895E+02  0.00000E+00  0.00000E+00 -0.20528E+00  0.14554E+00  0.24911E+00
  0.20000E-01  0.93426E+02    0.20000E-01 -0.95459E-02 -0.10454E-01  0.00000E+00  0.00000E+00  0.00000E+00    0.93424E+02  0.00000E+00  0.00000E+00 -0.20559E+00  0.14706E+00  0.24992E+00
  0.21000E-01  0.93953E+02    0.21000E-01 -0.10023E-01 -0.10977E-01  0.00000E+00  0.00000E+00  0.00000E+00    0.93951E+02  0.00000E+00  0.00000E+00 -0.20586E+00  0.14859E+00  0.25072E+00
  0.22000E-01  0.94476E+02    0.22000E-01 -0.10500E-01 -0.11500E-01  0.00000E+00  0.00000E+00  0.00000E+00    0.94474E+02  0.00000E+00  0.00000E+00 -0.20610E+00  0.15014E+00  0.25151E+00
  0.22999E-01  0.94997E+02    0.23000E-01 -0.10976E-01 -0.12024E-01  0.00000E+00  0.00000E+00  0.00000E+00    0.94995E+02  0.00000E+00  0.00000E+00 -0.20629E+00  0.15172E+00  0.25229E+00
  0.23999E-01  0.95514E+02    0.24000E-01 -0.11453E-01 -0.12547E-01  0.00000E+00  0.00000E+00  0.00000E+00    0.95512E+02  0.00000E+00  0.00000E+00 -0.20645E+00  0.15331E+00  0.25306E+00
  0.24999E-01  0.96028E+02    0.25000E-01 -0.11930E-01 -0.13070E-01  0.00000E+00  0.00000E+00  0.00000E+00    0.96026E+02  0.00000E+00  0.00000E+00 -0.20657E+00  0.15492E+00  0.25382E+00
  0.25999E-01  0.96539E+02    0.26000E-01 -0.12406E-01 -0.13594E-01  0.00000E+00  0.00000E+00  0.00000E+00    0.96537E+02  0.00000E+00  0.00000E+00 -0.20666E+00  0.15655E+00  0.25457E+00
  0.26999E-01  0.97047E+02    0.27000E-01 -0.12883E-01 -0.14117E-01  0.00000E+00  0.00000E+00  0.00000E+00    0.97045E+02  0.00000E+00  0.00000E+00 -0.20671E+00  0.15821E+00  0.25531E+00
  0.27999E-01  0.97552E+02    0.28000E-01 -0.13360E-01 -0.14640E-01  0.00000E+00  0.00000E+00  0.00000E+00    0.97550E+02  0.00000E+00  0.00000E+00 -0.20673E+00  0.15989E+00  0.25605E+00
  0.28999E-01  0.98054E+02    0.29000E-01 -0.13836E-01 -0.15164E-01  0.00000E+00  0.00000E+00  0.00000E+00    0.98052E+02  0.00000E+00  0.00000E+00 -0.20671E+00  0.16158E+00  0.25678E+00
  0.29999E-01  0.98553E+02    0.30000E-01 -0.14313E-01 -0.15687E-01  0.00000E+00  0.00000E+00  0.00000E+00    0.98551E+02  0.00000E+00  0.00000E+00 -0.20665E+00  0.16329E+00  0.25750E+00
  0.30999E-01  0.99049E+02    0.31000E-01 -0.14790E-01 -0.16210E-01  0.00000E+00  0.00000E+00  0.00000E+00    0.99047E+02  0.00000E+00  0.00000E+00 -0.20657E+00  0.16502E+00  0.25821E+00
  0.31999E-01  0.99543E+02    0.32000E-01 -0.15266E-01 -0.16734E-01  0.00000E+00  0.00000E+00  0.00000E+00    0.99541E+02  0.00000E+00  0.00000E+00 -0.20644E+00  0.16677E+00  0.25892E+00
  0.32999E-01  0.10003E+03    0.33000E-01 -0.15743E-01 -0.17257E-01  0.00000E+00  0.00000E+00  0.00000E+00    0.10003E+03  0.00000E+00  0.00000E+00 -0.20628E+00  0.16854E+00  0.25962E+00
  0.33999E-01  0.10052E+03    0.34000E-01 -0.16219E-01 -0.17781E-01  0.00000E+00  0.00000E+00  0.00000E+00    0.10052E+03  0.00000E+00  0.00000E+00 -0.20609E+00  0.17032E+00  0.26031E+00
  0.34999E-01  0.10100E+03    0.35000E-01 -0.16696E-01 -0.18304E-01  0.00000E+00  0.00000E+00  0.00000E+00    0.10100E+03  0.00000E+00  0.00000E+00 -0.20587E+00  0.17213E+00  0.26100E+00
  0.35999E-01  0.10149E+03    0.36000E-01 -0.17172E-01 -0.18828E-01  0.00000E+00  0.00000E+00  0.00000E+00    0.10148E+03  0.00000E+00  0.00000E+00 -0.20562E+00  0.17395E+00  0.26168E+00
  0.36999E-01  0.10197E+03    0.37000E-01 -0.17649E-01 -0.19351E-01  0.00000E+00  0.00000E+00  0.00000E+00    0.10196E+03  0.00000E+00  0.00000E+00 -0.20533E+00  0.17579E+00  0.26235E+00
  0.37999E-01  0.10244E+03    0.38000E-01 -0.18125E-01 -0.19875E-01  0.00000E+00  0.00000E+00  0.00000E+00    0.10244E+03  0.00000E+00  0.00000E+00 -0.20502E+00  0.17765E+00  0.26302E+00
  0.38999E-01  0.10292E+03    0.39000E-01 -0.18601E-01 -0.20399E-01  0.00000E+00  0.00000E+00  0.00000E+00    0.10291E+03  0.00000E+00  0.00000E+00 -0.20467E+00  0.17953E+00  0.26369E+00
  0.39999E-01  0.10339E+03    0.40000E-01 -0.19078E-01 -0.20922E-01  0.00000E+00  0.00000E+00  0.00000E+00    0.10338E+03  0.00000E+00  0.00000E+00 -0.20429E+00  0.18142E+00  0.26434E+00
  0.40999E-01  0.10385E+03    0.41000E-01 -0.19554E-01 -0.21446E-01  0.00000E+00  0.00000E+00  0.00000E+00    0.10385E+03  0.00000E+00  0.00000E+00 -0.20388E+00  0.18333E+00  0.26500E+00
  0.41999E-01  0.10432E+03    0.42000E-01 -0.20030E-01 -0.21970E-01  0.00000E+00  0.00000E+00  0.00000E+00    0.10432E+03  0.00000E+00  0.00000E+00 -0.20344E+00  0.18526E+00  0.26565E+00
  0.42999E-01  0.10478E+03    0.43000E-01 -0.20507E-01 -0.22493E-01  0.00000E+00  0.00000E+00  0.00000E+00    0.10478E+03  0.00000E+00  0.00000E+00 -0.20297E+00  0.18721E+00  0.26629E+00
  0.43999E-01  0.10524E+03    0.44000E-01 -0.20983E-01 -0.23017E-01  0.00000E+00  0.00000E+00  0.00000E+00    0.10524E+03  0.00000E+00  0.00000E+00 -0.20247E+00  0.18917E+00  0.26693E+00
  0.44999E-01  0.10570E+03    0.45000E-01 -0.21459E-01 -0.23541E-01  0.00000E+00  0.00000E+00  0.00000E+00    0.10570E+03  0.00000E+00  0.00000E+00 -0.20194E+00  0.19115E+00  0.26756E+00
  0.45999E-01  0.10612E+03    0.46000E-01 -0.21935E-01 -0.24065E-01  0.00000E+00  0.00000E+00  0.00000E+00    0.10612E+03  0.00000E+00  0.00000E+00 -0.20442E+00  0.19153E+00  0.26821E+00
  0.46999E-01  0.10660E+03    0.47000E-01 -0.22412E-01 -0.24588E-01  0.00000E+00  0.00000E+00  0.00000E+00    0.10660E+03  0.00000E+00  0.00000E+00 -0.20101E+00  0.19500E+00  0.26878E+00
  0.47999E-01  0.10702E+03    0.48000E-01 -0.22888E-01 -0.25112E-01  0.00000E+00  0.00000E+00  0.00000E+00    0.10702E+03  0.00000E+00  0.00000E+00 -0.20324E+00  0.19552E+00  0.26947E+00
  0.48999E-01  0.10747E+03    0.49000E-01 -0.23364E-01 -0.25636E-01  0.00000E+00  0.00000E+00  0.00000E+00    0.10747E+03  0.00000E+00  0.00000E+00 -0.20268E+00  0.19747E+00  0.27010E+00
  0.49999E-01  0.10792E+03    0.50000E-01 -0.23840E-01 -0.26160E-01  0.00000E+00  0.00000E+00  0.00000E+00    0.10791E+03  0.00000E+00  0.00000E+00 -0.20202E+00  0.19950E+00  0.27072E+00
  0.50999E-01  0.10836E+03    0.51000E-01 -0.24316E-01 -0.26684E-01  0.00000E+00  0.00000E+00  0.00000E+00    0.10836E+03  0.00000E+00  0.00000E+00 -0.20133E+00  0.20155E+00  0.27133E+00
  0.51999E-01  0.10880E+03    0.52000E-01 -0.24792E-01 -0.27208E-01  0.00000E+00  0.00000E+00  0.00000E+00    0.10879E+03  0.00000E+00  0.00000E+00 -0.20060E+00  0.20361E+00  0.27195E+00
  0.52999E-01  0.10923E+03    0.53000E-01 -0.25268E-01 -0.27732E-01  0.00000E+00  0.00000E+00  0.00000E+00    0.10923E+03  0.00000E+00  0.00000E+00 -0.19986E+00  0.20570E+00  0.27257E+00
  0.53999E-01  0.10967E+03    0.54000E-01 -0.25744E-01 -0.28256E-01  0.00000E+00  0.00000E+00  0.00000E+00    0.10967E+03  0.00000E+00  0.00000E+00 -0.19909E+00  0.20779E+00  0.27318E+00
  0.54999E-01  0.11010E+03    0.55000E-01 -0.26220E-01 -0.28780E-01  0.00000E+00  0.00000E+00  0.00000E+00    0.11010E+03  0.00000E+00  0.00000E+00 -0.19829E+00  0.20991E+00  0.27380E+00
  0.55999E-01  0.11055E+03    0.56000E-01 -0.26696E-01 -0.29304E-01  0.00000E+00  0.00000E+00  0.00000E+00    0.11055E+03  0.00000E+00  0.00000E+00 -0.19459E+00  0.21366E+00  0.27426E+00
  0.56999E-01  0.11096E+03    0.57000E-01 -0.27172E-01 -0.29828E-01  0.00000E+00  0.00000E+00  0.00000E+00    0.11095E+03  0.00000E+00  0.00000E+00 -0.19657E+00  0.21425E+00  0.27501E+00
  0.57999E-01  0.11140E+03    0.58000E-01 -0.27648E-01 -0.30352E-01  0.00000E+00  0.00000E+00  0.00000E+00    0.11140E+03  0.00000E+00  0.00000E+00 -0.19288E+00  0.21799E+00  0.27547E+00
  0.58999E-01  0.11180E+03    0.59000E-01 -0.28124E-01 -0.30876E-01  0.00000E+00  0.00000E+00  0.00000E+00    0.11180E+03  0.00000E+00  0.00000E+00 -0.19479E+00  0.21859E+00  0.27622E+00
  0.59999E-01  0.11222E+03    0.60000E-01 -0.28600E-01 -0.31400E-01  0.00000E+00  0.00000E+00  0.00000E+00    0.11221E+03  0.00000E+00  0.00000E+00 -0.19427E+00  0.22054E+00  0.27680E+00
  0.60999E-01  0.11264E+03    0.61000E-01 -0.29075E-01 -0.31925E-01  0.00000E+00  0.00000E+00  0.00000E+00    0.11264E+03  0.00000E+00  0.00000E+00 -0.19299E+00  0.22289E+00  0.27742E+00
  0.61999E-01  0.11305E+03    0.62000E-01 -0.29551E-01 -0.32449E-01  0.00000E+00  0.00000E+00  0.00000E+00    0.11305E+03  0.00000E+00  0.00000E+00 -0.19235E+00  0.22495E+00  0.27800E+00
  0.62999E-01  0.11347E+03    0.63000E-01 -0.30027E-01 -0.32973E-01  0.00000E+00  0.00000E+00  0.00000E+00    0.11347E+03  0.00000E+00  0.00000E+00 -0.19102E+00  0.22733E+00  0.27862E+00
  0.63999E-01  0.11387E+03    0.64000E-01 -0.30503E-01 -0.33497E-01  0.00000E+00  0.00000E+00  0.00000E+00    0.11387E+03  0.00000E+00  0.00000E+00 -0.19034E+00  0.22942E+00  0.27921E+00
  0.64999E-01  0.11429E+03    0.65000E-01 -0.30979E-01 -0.34021E-01  0.00000E+00  0.00000E+00  0.00000E+00    0.11429E+03  0.00000E+00  0.00000E+00 -0.18896E+00  0.23184E+00  0.27982E+00
  0.65999E-01  0.11469E+03    0.66000E-01 -0.31454E-01 -0.34546E-01  0.00000E+00  0.00000E+00  0.00000E+00    0.11469E+03  0.00000E+00  0.00000E+00 -0.18823E+00  0.23395E+00  0.28042E+00
  0.66999E-01  0.11511E+03    0.67000E-01 -0.31930E-01 -0.35070E-01  0.00000E+00  0.00000E+00  0.00000E+00    0.11510E+03  0.00000E+00  0.00000E+00 -0.18680E+00  0.23640E+00  0.28103E+00
  0.67999E-01  0.11550E+03    0.68000E-01 -0.32405E-01 -0.35595E-01  0.00000E+00  0.00000E+00  0.00000E+00    0.11549E+03  0.00000E+00  0.00000E+00 -0.18602E+00  0.23854E+00  0.28163E+00
  0.68999E-01  0.11591E+03    0.69000E-01 -0.32881E-01 -0.36119E-01  0.00000E+00  0.00000E+00  0.00000E+00    0.11591E+03  0.00000E+00  0.00000E+00 -0.18455E+00  0.24101E+00  0.28224E+00
  0.69999E-01  0.11629E+03    0.70000E-01 -0.33357E-01 -0.36643E-01  0.00000E+00  0.00000E+00  0.00000E+00    0.11629E+03  0.00000E+00  0.00000E+00 -0.18373E+00  0.24318E+00  0.28284E+00
  0.70999E-01  0.11669E+03    0.71000E-01 -0.33832E-01 -0.37168E-01  0.00000E+00  0.00000E+00  0.00000E+00    0.11669E+03  0.00000E+00  0.00000E+00 -0.18261E+00  0.24550E+00  0.28345E+00
  0.71999E-01  0.11708E+03    0.72000E-01 -0.34308E-01 -0.37692E-01  0.00000E+00  0.00000E+00  0.00000E+00    0.11708E+03  0.00000E+00  0.00000E+00 -0.18142E+00  0.24786E+00  0.28406E+00
  0.72998E-01  0.11747E+03    0.73000E-01 -0.34783E-01 -0.38217E-01  0.00000E+00  0.00000E+00  0.00000E+00    0.11747E+03  0.00000E+00  0.00000E+00 -0.18020E+00  0.25023E+00  0.28467E+00
  0.73998E-01  0.11786E+03    0.74000E-01 -0.35259E-01 -0.38741E-01  0.00000E+00  0.00000E+00  0.00000E+00    0.11786E+03  0.00000E+00  0.00000E+00 -0.17896E+00  0.25261E+00  0.28529E+00
  0.74998E-01  0.11825E+03    0.75000E-01 -0.35734E-01 -0.39266E-01  0.00000E+00  0.00000E+00  0.00000E+00    0.11825E+03  0.00000E+00  0.00000E+00 -0.17770E+00  0.25502E+00  0.28591E+00
  0.75998E-01  0.11864E+03    0.76000E-01 -0.36210E-01 -0.39790E-01  0.00000E+00  0.00000E+00  0.00000E+00    0.11863E+03  0.00000E+00  0.00000E+00 -0.17641E+00  0.25743E+00  0.28653E+00
  0.76998E-01  0.11902E+03    0.77000E-01 -0.36685E-01 -0.40315E-01  0.00000E+00  0.00000E+00  0.00000E+00    0.11902E+03  0.00000E+00  0.00000E+00 -0.17511E+00  0.25986E+00  0.28716E+00
  0.77998E-01  0.11940E+03    0.78000E-01 -0.37160E-01 -0.40840E-01  0.00000E+00  0.00000E+00  0.00000E+00    0.11940E+03  0.00000E+00  0.00000E+00 -0.17378E+00  0.26231E+00  0.28779E+00
  0.78998E-01  0.11978E+03    0.79000E-01 -0.37636E-01 -0.41364E-01  0.00000E+00  0.00000E+00  0.00000E+00    0.11978E+03  0.00000E+00  0.00000E+00 -0.17244E+00  0.26477E+00  0.28843E+00
  0.79998E-01  0.12016E+03    0.80000E-01 -0.38111E-01 -0.41889E-01  0.00000E+00  0.00000E+00  0.00000E+00    0.12016E+03  0.00000E+00  0.00000E+00 -0.17107E+00  0.26725E+00  0.28907E+00
  0.80998E-01  0.12053E+03    0.81000E-01 -0.38586E-01 -0.42414E-01  0.00000E+00  0.00000E+00  0.00000E+00    0.12053E+03  0.00000E+00  0.00000E+00 -0.16969E+00  0.26974E+00  0.28971E+00
  0.81998E-01  0.12091E+03    0.82000E-01 -0.39062E-01 -0.42938E-01  0.00000E+00  0.00000E+00  0.00000E+00    0.12090E+03  0.00000E+00  0.00000E+00 -0.16828E+00  0.27224E+00  0.29037E+00
  0.82998E-01  0.12128E+03    0.83000E-01 -0.39537E-01 -0.43463E-01  0.00000E+00  0.00000E+00  0.00000E+00    0.12128E+03  0.00000E+00  0.00000E+00 -0.16686E+00  0.27476E+00  0.29102E+00
  0.83998E-01  0.12165E+03    0.84000E-01 -0.40012E-01 -0.43988E-01  0.00000E+00  0.00000E+00  0.00000E+00    0.12165E+03  0.00000E+00  0.00000E+00 -0.16542E+00  0.27730E+00  0.29169E+00
  0.84998E-01  0.12202E+03    0.85000E-01 -0.40487E-01 -0.44513E-01  0.00000E+00  0.00000E+00  0.00000E+00    0.12201E+03  0.00000E+00  0.00000E+00 -0.15718E+00  0.28307E+00  0.29239E+00
  0.85998E-01  0.12236E+03    0.86000E-01 -0.40962E-01 -0.45038E-01  0.00000E+00  0.00000E+00  0.00000E+00    0.12236E+03  0.00000E+00  0.00000E+00 -0.15747E+00  0.28523E+00  0.29318E+00
  0.86998E-01  0.12271E+03    0.87000E-01 -0.41437E-01 -0.45563E-01  0.00000E+00  0.00000E+00  0.00000E+00    0.12271E+03  0.00000E+00  0.00000E+00 -0.15571E+00  0.28792E+00  0.29389E+00
  0.87998E-01  0.12308E+03    0.88000E-01 -0.41913E-01 -0.46087E-01  0.00000E+00  0.00000E+00  0.00000E+00    0.12307E+03  0.00000E+00  0.00000E+00 -0.15418E+00  0.29054E+00  0.29459E+00
  0.88998E-01  0.12344E+03    0.89000E-01 -0.42388E-01 -0.46612E-01  0.00000E+00  0.00000E+00  0.00000E+00    0.12343E+03  0.00000E+00  0.00000E+00 -0.15265E+00  0.29318E+00  0.29530E+00
  0.89998E-01  0.12379E+03    0.90000E-01 -0.42863E-01 -0.47137E-01  0.00000E+00  0.00000E+00  0.00000E+00    0.12379E+03  0.00000E+00  0.00000E+00 -0.15110E+00  0.29584E+00  0.29602E+00
  0.90998E-01  0.12420E+03    0.91000E-01 -0.43338E-01 -0.47662E-01  0.00000E+00  0.00000E+00  0.00000E+00    0.12420E+03  0.00000E+00  0.00000E+00 -0.14798E+00  0.29917E+00  0.29665E+00
  0.91998E-01  0.12456E+03    0.92000E-01 -0.43813E-01 -0.48187E-01  0.00000E+00  0.00000E+00  0.00000E+00    0.12456E+03  0.00000E+00  0.00000E+00 -0.14678E+00  0.30177E+00  0.29736E+00
  0.92998E-01  0.12491E+03    0.93000E-01 -0.44288E-01 -0.48712E-01  0.00000E+00  0.00000E+00  0.00000E+00    0.12491E+03  0.00000E+00  0.00000E+00 -0.14518E+00  0.30448E+00  0.29810E+00
  0.93998E-01  0.12526E+03    0.94000E-01 -0.44762E-01 -0.49238E-01  0.00000E+00  0.00000E+00  0.00000E+00    0.12526E+03  0.00000E+00  0.00000E+00 -0.14356E+00  0.30721E+00  0.29885E+00
  0.94998E-01  0.12561E+03    0.95000E-01 -0.45237E-01 -0.49763E-01  0.00000E+00  0.00000E+00  0.00000E+00    0.12561E+03  0.00000E+00  0.00000E+00 -0.14192E+00  0.30995E+00  0.29961E+00
  0.95998E-01  0.12596E+03    0.96000E-01 -0.45712E-01 -0.50288E-01  0.00000E+00  0.00000E+00  0.00000E+00    0.12596E+03  0.00000E+00  0.00000E+00 -0.14027E+00  0.31272E+00  0.30039E+00
  0.96998E-01  0.12631E+03    0.97000E-01 -0.46187E-01 -0.50813E-01  0.00000E+00  0.00000E+00  0.00000E+00    0.12630E+03  0.00000E+00  0.00000E+00 -0.13861E+00  0.31550E+00  0.30118E+00
  0.97998E-01  0.12665E+03    0.98000E-01 -0.46662E-01 -0.51338E-01  0.00000E+00  0.00000E+00  0.00000E+00    0.12665E+03  0.00000E+00  0.00000E+00 -0.13693E+00  0.31830E+00  0.30198E+00
  0.98998E-01  0.12699E+03    0.99000E-01 -0.47137E-01 -0.51863E-01  0.00000E+00  0.00000E+00  0.00000E+00    0.12699E+03  0.00000E+00  0.00000E+00 -0.13523E+00  0.32111E+00  0.30279E+00
  0.99998E-01  0.12733E+03    0.10000E+00 -0.47612E-01 -0.52388E-01  0.00000E+00  0.00000E+00  0.00000E+00    0.12733E+03  0.00000E+00  0.00000E+00 -0.13352E+00  0.32395E+00  0.30361E+00
