          Evm          Svm            E11          E22          E33          E23          E13          E12         SCAU11       SCAU22       SCAU33       SCAU23       SCAU13       SCAU12      TEMP
  0.00000E+00  0.81424E+02    0.00000E+00  0.00000E+00  0.00000E+00  0.00000E+00  0.00000E+00  0.00000E+00    0.81422E+02  0.00000E+00  0.00000E+00 -0.18885E+00  0.11708E+00  0.22499E+00
  0.99998E-03  0.81925E+02    0.10000E-02 -0.47967E-03 -0.52033E-03  0.00000E+00  0.00000E+00  0.00000E+00    0.81923E+02  0.00000E+00  0.00000E+00 -0.19283E+00  0.11987E+00  0.22790E+00
  0.20000E-02  0.82398E+02    0.20000E-02 -0.95784E-03 -0.10422E-02  0.00000E+00  0.00000E+00  0.00000E+00    0.82396E+02  0.00000E+00  0.00000E+00 -0.19309E+00  0.12078E+00  0.22981E+00
  0.29999E-02  0.82913E+02    0.30000E-02 -0.14356E-02 -0.15644E-02  0.00000E+00  0.00000E+00  0.00000E+00    0.82911E+02  0.00000E+00  0.00000E+00 -0.19231E+00  0.12260E+00  0.23103E+00
  0.39999E-02  0.83441E+02    0.40000E-02 -0.19132E-02 -0.20868E-02  0.00000E+00  0.00000E+00  0.00000E+00    0.83439E+02  0.00000E+00  0.00000E+00 -0.19314E+00  0.12376E+00  0.23217E+00
  0.49999E-02  0.83959E+02    0.50000E-02 -0.23906E-02 -0.26094E-02  0.00000E+00  0.00000E+00  0.00000E+00    0.83958E+02  0.00000E+00  0.00000E+00 -0.19390E+00  0.12486E+00  0.23313E+00
  0.59999E-02  0.84474E+02    0.60000E-02 -0.28679E-02 -0.31321E-02  0.00000E+00  0.00000E+00  0.00000E+00    0.84472E+02  0.00000E+00  0.00000E+00 -0.19462E+00  0.12598E+00  0.23404E+00
  0.69998E-02  0.84986E+02    0.70000E-02 -0.33452E-02 -0.36548E-02  0.00000E+00  0.00000E+00  0.00000E+00    0.84984E+02  0.00000E+00  0.00000E+00 -0.19529E+00  0.12713E+00  0.23491E+00
  0.79998E-02  0.85494E+02    0.80000E-02 -0.38224E-02 -0.41776E-02  0.00000E+00  0.00000E+00  0.00000E+00    0.85492E+02  0.00000E+00  0.00000E+00 -0.19593E+00  0.12830E+00  0.23575E+00
  0.89998E-02  0.85999E+02    0.90000E-02 -0.42995E-02 -0.47005E-02  0.00000E+00  0.00000E+00  0.00000E+00    0.85997E+02  0.00000E+00  0.00000E+00 -0.19653E+00  0.12949E+00  0.23656E+00
  0.99998E-02  0.86501E+02    0.10000E-01 -0.47766E-02 -0.52234E-02  0.00000E+00  0.00000E+00  0.00000E+00    0.86499E+02  0.00000E+00  0.00000E+00 -0.19709E+00  0.13070E+00  0.23736E+00
  0.11000E-01  0.87000E+02    0.11000E-01 -0.52537E-02 -0.57463E-02  0.00000E+00  0.00000E+00  0.00000E+00    0.86998E+02  0.00000E+00  0.00000E+00 -0.19761E+00  0.13193E+00  0.23814E+00
  0.12000E-01  0.87496E+02    0.12000E-01 -0.57307E-02 -0.62693E-02  0.00000E+00  0.00000E+00  0.00000E+00    0.87494E+02  0.00000E+00  0.00000E+00 -0.19809E+00  0.13318E+00  0.23890E+00
  0.13000E-01  0.87989E+02    0.13000E-01 -0.62077E-02 -0.67923E-02  0.00000E+00  0.00000E+00  0.00000E+00    0.87987E+02  0.00000E+00  0.00000E+00 -0.19854E+00  0.13446E+00  0.23966E+00
  0.14000E-01  0.88479E+02    0.14000E-01 -0.66847E-02 -0.73153E-02  0.00000E+00  0.00000E+00  0.00000E+00    0.88477E+02  0.00000E+00  0.00000E+00 -0.19895E+00  0.13575E+00  0.24039E+00
  0.15000E-01  0.88966E+02    0.15000E-01 -0.71616E-02 -0.78384E-02  0.00000E+00  0.00000E+00  0.00000E+00    0.88964E+02  0.00000E+00  0.00000E+00 -0.19932E+00  0.13707E+00  0.24112E+00
  0.16000E-01  0.89450E+02    0.16000E-01 -0.76386E-02 -0.83614E-02  0.00000E+00  0.00000E+00  0.00000E+00    0.89448E+02  0.00000E+00  0.00000E+00 -0.19966E+00  0.13840E+00  0.24183E+00
  0.17000E-01  0.89931E+02    0.17000E-01 -0.81155E-02 -0.88845E-02  0.00000E+00  0.00000E+00  0.00000E+00    0.89929E+02  0.00000E+00  0.00000E+00 -0.19996E+00  0.13975E+00  0.24253E+00
  0.18000E-01  0.90409E+02    0.18000E-01 -0.85924E-02 -0.94076E-02  0.00000E+00  0.00000E+00  0.00000E+00    0.90407E+02  0.00000E+00  0.00000E+00 -0.20023E+00  0.14113E+00  0.24323E+00
  0.19000E-01  0.90885E+02    0.19000E-01 -0.90692E-02 -0.99308E-02  0.00000E+00  0.00000E+00  0.00000E+00    0.90883E+02  0.00000E+00  0.00000E+00 -0.20045E+00  0.14252E+00  0.24392E+00
  0.20000E-01  0.91357E+02    0.20000E-01 -0.95461E-02 -0.10454E-01  0.00000E+00  0.00000E+00  0.00000E+00    0.91355E+02  0.00000E+00  0.00000E+00 -0.20065E+00  0.14393E+00  0.24459E+00
  0.21000E-01  0.91827E+02    0.21000E-01 -0.10023E-01 -0.10977E-01  0.00000E+00  0.00000E+00  0.00000E+00    0.91825E+02  0.00000E+00  0.00000E+00 -0.20080E+00  0.14536E+00  0.24526E+00
  0.22000E-01  0.92294E+02    0.22000E-01 -0.10500E-01 -0.11500E-01  0.00000E+00  0.00000E+00  0.00000E+00    0.92292E+02  0.00000E+00  0.00000E+00 -0.20093E+00  0.14681E+00  0.24591E+00
  0.22999E-01  0.92758E+02    0.23000E-01 -0.10976E-01 -0.12024E-01  0.00000E+00  0.00000E+00  0.00000E+00    0.92756E+02  0.00000E+00  0.00000E+00 -0.20102E+00  0.14828E+00  0.24657E+00
  0.23999E-01  0.93219E+02    0.24000E-01 -0.11453E-01 -0.12547E-01  0.00000E+00  0.00000E+00  0.00000E+00    0.93217E+02  0.00000E+00  0.00000E+00 -0.20107E+00  0.14977E+00  0.24721E+00
  0.24999E-01  0.93677E+02    0.25000E-01 -0.11930E-01 -0.13070E-01  0.00000E+00  0.00000E+00  0.00000E+00    0.93675E+02  0.00000E+00  0.00000E+00 -0.20110E+00  0.15128E+00  0.24784E+00
  0.25999E-01  0.94133E+02    0.26000E-01 -0.12407E-01 -0.13593E-01  0.00000E+00  0.00000E+00  0.00000E+00    0.94131E+02  0.00000E+00  0.00000E+00 -0.20108E+00  0.15281E+00  0.24847E+00
  0.26999E-01  0.94586E+02    0.27000E-01 -0.12883E-01 -0.14117E-01  0.00000E+00  0.00000E+00  0.00000E+00    0.94584E+02  0.00000E+00  0.00000E+00 -0.20104E+00  0.15435E+00  0.24909E+00
  0.27999E-01  0.95037E+02    0.28000E-01 -0.13360E-01 -0.14640E-01  0.00000E+00  0.00000E+00  0.00000E+00    0.95035E+02  0.00000E+00  0.00000E+00 -0.20096E+00  0.15592E+00  0.24970E+00
  0.28999E-01  0.95484E+02    0.29000E-01 -0.13837E-01 -0.15163E-01  0.00000E+00  0.00000E+00  0.00000E+00    0.95482E+02  0.00000E+00  0.00000E+00 -0.20085E+00  0.15750E+00  0.25031E+00
  0.29999E-01  0.95929E+02    0.30000E-01 -0.14313E-01 -0.15687E-01  0.00000E+00  0.00000E+00  0.00000E+00    0.95927E+02  0.00000E+00  0.00000E+00 -0.20071E+00  0.15910E+00  0.25091E+00
  0.30999E-01  0.96372E+02    0.31000E-01 -0.14790E-01 -0.16210E-01  0.00000E+00  0.00000E+00  0.00000E+00    0.96370E+02  0.00000E+00  0.00000E+00 -0.20054E+00  0.16072E+00  0.25150E+00
  0.31999E-01  0.96812E+02    0.32000E-01 -0.15266E-01 -0.16734E-01  0.00000E+00  0.00000E+00  0.00000E+00    0.96810E+02  0.00000E+00  0.00000E+00 -0.20034E+00  0.16235E+00  0.25209E+00
  0.32999E-01  0.97249E+02    0.33000E-01 -0.15743E-01 -0.17257E-01  0.00000E+00  0.00000E+00  0.00000E+00    0.97247E+02  0.00000E+00  0.00000E+00 -0.20011E+00  0.16400E+00  0.25267E+00
  0.33999E-01  0.97684E+02    0.34000E-01 -0.16219E-01 -0.17781E-01  0.00000E+00  0.00000E+00  0.00000E+00    0.97682E+02  0.00000E+00  0.00000E+00 -0.19985E+00  0.16567E+00  0.25325E+00
  0.34999E-01  0.98116E+02    0.35000E-01 -0.16696E-01 -0.18304E-01  0.00000E+00  0.00000E+00  0.00000E+00    0.98114E+02  0.00000E+00  0.00000E+00 -0.19955E+00  0.16736E+00  0.25382E+00
  0.35999E-01  0.98512E+02    0.36000E-01 -0.17172E-01 -0.18828E-01  0.00000E+00  0.00000E+00  0.00000E+00    0.98510E+02  0.00000E+00  0.00000E+00 -0.20192E+00  0.16777E+00  0.25437E+00
  0.36999E-01  0.98969E+02    0.37000E-01 -0.17649E-01 -0.19351E-01  0.00000E+00  0.00000E+00  0.00000E+00    0.98967E+02  0.00000E+00  0.00000E+00 -0.19905E+00  0.17067E+00  0.25491E+00
  0.37999E-01  0.99364E+02    0.38000E-01 -0.18125E-01 -0.19875E-01  0.00000E+00  0.00000E+00  0.00000E+00    0.99362E+02  0.00000E+00  0.00000E+00 -0.20120E+00  0.17119E+00  0.25549E+00
  0.38999E-01  0.99787E+02    0.39000E-01 -0.18602E-01 -0.20398E-01  0.00000E+00  0.00000E+00  0.00000E+00    0.99785E+02  0.00000E+00  0.00000E+00 -0.20087E+00  0.17285E+00  0.25604E+00
  0.39999E-01  0.10021E+03    0.40000E-01 -0.19078E-01 -0.20922E-01  0.00000E+00  0.00000E+00  0.00000E+00    0.10021E+03  0.00000E+00  0.00000E+00 -0.20044E+00  0.17460E+00  0.25659E+00
  0.40999E-01  0.10062E+03    0.41000E-01 -0.19554E-01 -0.21446E-01  0.00000E+00  0.00000E+00  0.00000E+00    0.10062E+03  0.00000E+00  0.00000E+00 -0.19998E+00  0.17637E+00  0.25714E+00
  0.41999E-01  0.10104E+03    0.42000E-01 -0.20031E-01 -0.21969E-01  0.00000E+00  0.00000E+00  0.00000E+00    0.10104E+03  0.00000E+00  0.00000E+00 -0.19949E+00  0.17815E+00  0.25769E+00
  0.42999E-01  0.10145E+03    0.43000E-01 -0.20507E-01 -0.22493E-01  0.00000E+00  0.00000E+00  0.00000E+00    0.10145E+03  0.00000E+00  0.00000E+00 -0.19898E+00  0.17995E+00  0.25823E+00
  0.43999E-01  0.10186E+03    0.44000E-01 -0.20983E-01 -0.23017E-01  0.00000E+00  0.00000E+00  0.00000E+00    0.10186E+03  0.00000E+00  0.00000E+00 -0.19844E+00  0.18177E+00  0.25877E+00
  0.44999E-01  0.10227E+03    0.45000E-01 -0.21459E-01 -0.23541E-01  0.00000E+00  0.00000E+00  0.00000E+00    0.10227E+03  0.00000E+00  0.00000E+00 -0.19787E+00  0.18360E+00  0.25930E+00
  0.45999E-01  0.10270E+03    0.46000E-01 -0.21936E-01 -0.24064E-01  0.00000E+00  0.00000E+00  0.00000E+00    0.10269E+03  0.00000E+00  0.00000E+00 -0.19468E+00  0.18678E+00  0.25975E+00
  0.46999E-01  0.10308E+03    0.47000E-01 -0.22412E-01 -0.24588E-01  0.00000E+00  0.00000E+00  0.00000E+00    0.10308E+03  0.00000E+00  0.00000E+00 -0.19660E+00  0.18737E+00  0.26036E+00
  0.47999E-01  0.10350E+03    0.48000E-01 -0.22888E-01 -0.25112E-01  0.00000E+00  0.00000E+00  0.00000E+00    0.10350E+03  0.00000E+00  0.00000E+00 -0.19342E+00  0.19054E+00  0.26079E+00
  0.48999E-01  0.10388E+03    0.49000E-01 -0.23364E-01 -0.25636E-01  0.00000E+00  0.00000E+00  0.00000E+00    0.10388E+03  0.00000E+00  0.00000E+00 -0.19527E+00  0.19114E+00  0.26142E+00
  0.49999E-01  0.10430E+03    0.50000E-01 -0.23840E-01 -0.26160E-01  0.00000E+00  0.00000E+00  0.00000E+00    0.10429E+03  0.00000E+00  0.00000E+00 -0.19205E+00  0.19437E+00  0.26183E+00
  0.50999E-01  0.10467E+03    0.51000E-01 -0.24316E-01 -0.26684E-01  0.00000E+00  0.00000E+00  0.00000E+00    0.10467E+03  0.00000E+00  0.00000E+00 -0.19385E+00  0.19496E+00  0.26246E+00
  0.51999E-01  0.10505E+03    0.52000E-01 -0.24792E-01 -0.27208E-01  0.00000E+00  0.00000E+00  0.00000E+00    0.10505E+03  0.00000E+00  0.00000E+00 -0.19346E+00  0.19671E+00  0.26295E+00
  0.52999E-01  0.10545E+03    0.53000E-01 -0.25268E-01 -0.27732E-01  0.00000E+00  0.00000E+00  0.00000E+00    0.10545E+03  0.00000E+00  0.00000E+00 -0.19240E+00  0.19878E+00  0.26348E+00
  0.53999E-01  0.10583E+03    0.54000E-01 -0.25744E-01 -0.28256E-01  0.00000E+00  0.00000E+00  0.00000E+00    0.10583E+03  0.00000E+00  0.00000E+00 -0.19190E+00  0.20061E+00  0.26397E+00
  0.54999E-01  0.10623E+03    0.55000E-01 -0.26220E-01 -0.28780E-01  0.00000E+00  0.00000E+00  0.00000E+00    0.10623E+03  0.00000E+00  0.00000E+00 -0.19079E+00  0.20272E+00  0.26450E+00
  0.55999E-01  0.10660E+03    0.56000E-01 -0.26696E-01 -0.29304E-01  0.00000E+00  0.00000E+00  0.00000E+00    0.10660E+03  0.00000E+00  0.00000E+00 -0.19023E+00  0.20457E+00  0.26500E+00
  0.56999E-01  0.10699E+03    0.57000E-01 -0.27172E-01 -0.29828E-01  0.00000E+00  0.00000E+00  0.00000E+00    0.10699E+03  0.00000E+00  0.00000E+00 -0.18908E+00  0.20671E+00  0.26552E+00
  0.57999E-01  0.10736E+03    0.58000E-01 -0.27648E-01 -0.30352E-01  0.00000E+00  0.00000E+00  0.00000E+00    0.10736E+03  0.00000E+00  0.00000E+00 -0.18848E+00  0.20859E+00  0.26602E+00
  0.58999E-01  0.10775E+03    0.59000E-01 -0.28124E-01 -0.30876E-01  0.00000E+00  0.00000E+00  0.00000E+00    0.10775E+03  0.00000E+00  0.00000E+00 -0.18727E+00  0.21076E+00  0.26654E+00
  0.59999E-01  0.10811E+03    0.60000E-01 -0.28600E-01 -0.31400E-01  0.00000E+00  0.00000E+00  0.00000E+00    0.10811E+03  0.00000E+00  0.00000E+00 -0.18663E+00  0.21267E+00  0.26704E+00
  0.60999E-01  0.10849E+03    0.61000E-01 -0.29075E-01 -0.31925E-01  0.00000E+00  0.00000E+00  0.00000E+00    0.10848E+03  0.00000E+00  0.00000E+00 -0.18573E+00  0.21471E+00  0.26755E+00
  0.61999E-01  0.10886E+03    0.62000E-01 -0.29551E-01 -0.32449E-01  0.00000E+00  0.00000E+00  0.00000E+00    0.10885E+03  0.00000E+00  0.00000E+00 -0.18476E+00  0.21677E+00  0.26805E+00
  0.62999E-01  0.10923E+03    0.63000E-01 -0.30027E-01 -0.32973E-01  0.00000E+00  0.00000E+00  0.00000E+00    0.10922E+03  0.00000E+00  0.00000E+00 -0.18377E+00  0.21886E+00  0.26856E+00
  0.63999E-01  0.10959E+03    0.64000E-01 -0.30503E-01 -0.33497E-01  0.00000E+00  0.00000E+00  0.00000E+00    0.10959E+03  0.00000E+00  0.00000E+00 -0.18274E+00  0.22096E+00  0.26907E+00
  0.64999E-01  0.10996E+03    0.65000E-01 -0.30978E-01 -0.34022E-01  0.00000E+00  0.00000E+00  0.00000E+00    0.10996E+03  0.00000E+00  0.00000E+00 -0.18170E+00  0.22307E+00  0.26958E+00
  0.65999E-01  0.11032E+03    0.66000E-01 -0.31454E-01 -0.34546E-01  0.00000E+00  0.00000E+00  0.00000E+00    0.11032E+03  0.00000E+00  0.00000E+00 -0.18063E+00  0.22520E+00  0.27009E+00
  0.66999E-01  0.11068E+03    0.67000E-01 -0.31930E-01 -0.35070E-01  0.00000E+00  0.00000E+00  0.00000E+00    0.11068E+03  0.00000E+00  0.00000E+00 -0.17955E+00  0.22734E+00  0.27060E+00
  0.67999E-01  0.11104E+03    0.68000E-01 -0.32405E-01 -0.35595E-01  0.00000E+00  0.00000E+00  0.00000E+00    0.11104E+03  0.00000E+00  0.00000E+00 -0.17844E+00  0.22949E+00  0.27112E+00
  0.68999E-01  0.11140E+03    0.69000E-01 -0.32881E-01 -0.36119E-01  0.00000E+00  0.00000E+00  0.00000E+00    0.11140E+03  0.00000E+00  0.00000E+00 -0.17732E+00  0.23165E+00  0.27163E+00
  0.69999E-01  0.11175E+03    0.70000E-01 -0.33357E-01 -0.36643E-01  0.00000E+00  0.00000E+00  0.00000E+00    0.11175E+03  0.00000E+00  0.00000E+00 -0.17617E+00  0.23383E+00  0.27215E+00
  0.70999E-01  0.11211E+03    0.71000E-01 -0.33832E-01 -0.37168E-01  0.00000E+00  0.00000E+00  0.00000E+00    0.11210E+03  0.00000E+00  0.00000E+00 -0.17500E+00  0.23602E+00  0.27267E+00
  0.71999E-01  0.11246E+03    0.72000E-01 -0.34308E-01 -0.37692E-01  0.00000E+00  0.00000E+00  0.00000E+00    0.11246E+03  0.00000E+00  0.00000E+00 -0.17382E+00  0.23822E+00  0.27319E+00
  0.72998E-01  0.11281E+03    0.73000E-01 -0.34783E-01 -0.38217E-01  0.00000E+00  0.00000E+00  0.00000E+00    0.11281E+03  0.00000E+00  0.00000E+00 -0.17262E+00  0.24044E+00  0.27372E+00
  0.73998E-01  0.11316E+03    0.74000E-01 -0.35259E-01 -0.38741E-01  0.00000E+00  0.00000E+00  0.00000E+00    0.11315E+03  0.00000E+00  0.00000E+00 -0.17139E+00  0.24267E+00  0.27424E+00
  0.74998E-01  0.11350E+03    0.75000E-01 -0.35734E-01 -0.39266E-01  0.00000E+00  0.00000E+00  0.00000E+00    0.11350E+03  0.00000E+00  0.00000E+00 -0.17015E+00  0.24492E+00  0.27478E+00
  0.75998E-01  0.11385E+03    0.76000E-01 -0.36209E-01 -0.39791E-01  0.00000E+00  0.00000E+00  0.00000E+00    0.11384E+03  0.00000E+00  0.00000E+00 -0.16889E+00  0.24718E+00  0.27531E+00
  0.76998E-01  0.11419E+03    0.77000E-01 -0.36685E-01 -0.40315E-01  0.00000E+00  0.00000E+00  0.00000E+00    0.11419E+03  0.00000E+00  0.00000E+00 -0.16760E+00  0.24945E+00  0.27586E+00
  0.77998E-01  0.11453E+03    0.78000E-01 -0.37160E-01 -0.40840E-01  0.00000E+00  0.00000E+00  0.00000E+00    0.11453E+03  0.00000E+00  0.00000E+00 -0.16023E+00  0.25449E+00  0.27643E+00
  0.78998E-01  0.11485E+03    0.79000E-01 -0.37635E-01 -0.41365E-01  0.00000E+00  0.00000E+00  0.00000E+00    0.11485E+03  0.00000E+00  0.00000E+00 -0.16050E+00  0.25648E+00  0.27705E+00
  0.79998E-01  0.11518E+03    0.80000E-01 -0.38111E-01 -0.41889E-01  0.00000E+00  0.00000E+00  0.00000E+00    0.11518E+03  0.00000E+00  0.00000E+00 -0.15892E+00  0.25888E+00  0.27763E+00
  0.80998E-01  0.11551E+03    0.81000E-01 -0.38586E-01 -0.42414E-01  0.00000E+00  0.00000E+00  0.00000E+00    0.11551E+03  0.00000E+00  0.00000E+00 -0.15756E+00  0.26123E+00  0.27819E+00
  0.81998E-01  0.11585E+03    0.82000E-01 -0.39061E-01 -0.42939E-01  0.00000E+00  0.00000E+00  0.00000E+00    0.11584E+03  0.00000E+00  0.00000E+00 -0.15618E+00  0.26359E+00  0.27876E+00
  0.82998E-01  0.11622E+03    0.83000E-01 -0.39536E-01 -0.43464E-01  0.00000E+00  0.00000E+00  0.00000E+00    0.11622E+03  0.00000E+00  0.00000E+00 -0.15342E+00  0.26652E+00  0.27927E+00
  0.83998E-01  0.11656E+03    0.84000E-01 -0.40012E-01 -0.43988E-01  0.00000E+00  0.00000E+00  0.00000E+00    0.11656E+03  0.00000E+00  0.00000E+00 -0.15238E+00  0.26884E+00  0.27983E+00
  0.84998E-01  0.11689E+03    0.85000E-01 -0.40487E-01 -0.44513E-01  0.00000E+00  0.00000E+00  0.00000E+00    0.11689E+03  0.00000E+00  0.00000E+00 -0.15095E+00  0.27125E+00  0.28041E+00
  0.85998E-01  0.11721E+03    0.86000E-01 -0.40962E-01 -0.45038E-01  0.00000E+00  0.00000E+00  0.00000E+00    0.11721E+03  0.00000E+00  0.00000E+00 -0.14951E+00  0.27368E+00  0.28101E+00
  0.86998E-01  0.11754E+03    0.87000E-01 -0.41437E-01 -0.45563E-01  0.00000E+00  0.00000E+00  0.00000E+00    0.11754E+03  0.00000E+00  0.00000E+00 -0.14805E+00  0.27612E+00  0.28161E+00
  0.87998E-01  0.11786E+03    0.88000E-01 -0.41912E-01 -0.46088E-01  0.00000E+00  0.00000E+00  0.00000E+00    0.11786E+03  0.00000E+00  0.00000E+00 -0.14658E+00  0.27858E+00  0.28222E+00
  0.88998E-01  0.11818E+03    0.89000E-01 -0.42387E-01 -0.46613E-01  0.00000E+00  0.00000E+00  0.00000E+00    0.11818E+03  0.00000E+00  0.00000E+00 -0.14509E+00  0.28105E+00  0.28284E+00
  0.89998E-01  0.11850E+03    0.90000E-01 -0.42862E-01 -0.47138E-01  0.00000E+00  0.00000E+00  0.00000E+00    0.11850E+03  0.00000E+00  0.00000E+00 -0.14359E+00  0.28354E+00  0.28347E+00
  0.90998E-01  0.11882E+03    0.91000E-01 -0.43337E-01 -0.47663E-01  0.00000E+00  0.00000E+00  0.00000E+00    0.11882E+03  0.00000E+00  0.00000E+00 -0.14207E+00  0.28604E+00  0.28410E+00
  0.91998E-01  0.11914E+03    0.92000E-01 -0.43812E-01 -0.48188E-01  0.00000E+00  0.00000E+00  0.00000E+00    0.11914E+03  0.00000E+00  0.00000E+00 -0.14053E+00  0.28856E+00  0.28475E+00
  0.92998E-01  0.11945E+03    0.93000E-01 -0.44287E-01 -0.48713E-01  0.00000E+00  0.00000E+00  0.00000E+00    0.11945E+03  0.00000E+00  0.00000E+00 -0.13898E+00  0.29109E+00  0.28540E+00
  0.93998E-01  0.11977E+03    0.94000E-01 -0.44762E-01 -0.49238E-01  0.00000E+00  0.00000E+00  0.00000E+00    0.11976E+03  0.00000E+00  0.00000E+00 -0.13742E+00  0.29365E+00  0.28607E+00
  0.94998E-01  0.12008E+03    0.95000E-01 -0.45237E-01 -0.49763E-01  0.00000E+00  0.00000E+00  0.00000E+00    0.12008E+03  0.00000E+00  0.00000E+00 -0.13584E+00  0.29621E+00  0.28674E+00
  0.95998E-01  0.12039E+03    0.96000E-01 -0.45712E-01 -0.50288E-01  0.00000E+00  0.00000E+00  0.00000E+00    0.12039E+03  0.00000E+00  0.00000E+00 -0.13424E+00  0.29880E+00  0.28743E+00
  0.96998E-01  0.12070E+03    0.97000E-01 -0.46187E-01 -0.50813E-01  0.00000E+00  0.00000E+00  0.00000E+00    0.12070E+03  0.00000E+00  0.00000E+00 -0.13264E+00  0.30140E+00  0.28813E+00
  0.97998E-01  0.12100E+03    0.98000E-01 -0.46661E-01 -0.51339E-01  0.00000E+00  0.00000E+00  0.00000E+00    0.12100E+03  0.00000E+00  0.00000E+00 -0.13102E+00  0.30401E+00  0.28884E+00
  0.98998E-01  0.12131E+03    0.99000E-01 -0.47136E-01 -0.51864E-01  0.00000E+00  0.00000E+00  0.00000E+00    0.12131E+03  0.00000E+00  0.00000E+00 -0.12938E+00  0.30665E+00  0.28956E+00
  0.99998E-01  0.12161E+03    0.10000E+00 -0.47611E-01 -0.52389E-01  0.00000E+00  0.00000E+00  0.00000E+00    0.12161E+03  0.00000E+00  0.00000E+00 -0.12773E+00  0.30930E+00  0.29030E+00
