          Evm          Svm            E11          E22          E33          E23          E13          E12         SCAU11       SCAU22       SCAU33       SCAU23       SCAU13       SCAU12      TEMP
  0.00000E+00  0.75948E+02    0.00000E+00  0.00000E+00  0.00000E+00  0.00000E+00  0.00000E+00  0.00000E+00    0.75946E+02  0.00000E+00  0.00000E+00 -0.17615E+00  0.10921E+00  0.20985E+00
  0.99998E-03  0.76450E+02    0.10000E-02 -0.47967E-03 -0.52033E-03  0.00000E+00  0.00000E+00  0.00000E+00    0.76448E+02  0.00000E+00  0.00000E+00 -0.18011E+00  0.11185E+00  0.21266E+00
  0.20000E-02  0.76923E+02    0.20000E-02 -0.95784E-03 -0.10422E-02  0.00000E+00  0.00000E+00  0.00000E+00    0.76921E+02  0.00000E+00  0.00000E+00 -0.18041E+00  0.11277E+00  0.21453E+00
  0.29999E-02  0.77445E+02    0.30000E-02 -0.14356E-02 -0.15644E-02  0.00000E+00  0.00000E+00  0.00000E+00    0.77443E+02  0.00000E+00  0.00000E+00 -0.18139E+00  0.11378E+00  0.21583E+00
  0.39999E-02  0.77966E+02    0.40000E-02 -0.19132E-02 -0.20868E-02  0.00000E+00  0.00000E+00  0.00000E+00    0.77965E+02  0.00000E+00  0.00000E+00 -0.18224E+00  0.11481E+00  0.21690E+00
  0.49999E-02  0.78475E+02    0.50000E-02 -0.23906E-02 -0.26094E-02  0.00000E+00  0.00000E+00  0.00000E+00    0.78473E+02  0.00000E+00  0.00000E+00 -0.18133E+00  0.11661E+00  0.21789E+00
  0.59999E-02  0.78996E+02    0.60000E-02 -0.28678E-02 -0.31322E-02  0.00000E+00  0.00000E+00  0.00000E+00    0.78995E+02  0.00000E+00  0.00000E+00 -0.18211E+00  0.11781E+00  0.21885E+00
  0.69998E-02  0.79508E+02    0.70000E-02 -0.33451E-02 -0.36549E-02  0.00000E+00  0.00000E+00  0.00000E+00    0.79506E+02  0.00000E+00  0.00000E+00 -0.18284E+00  0.11893E+00  0.21975E+00
  0.79998E-02  0.80016E+02    0.80000E-02 -0.38222E-02 -0.41778E-02  0.00000E+00  0.00000E+00  0.00000E+00    0.80014E+02  0.00000E+00  0.00000E+00 -0.18352E+00  0.12006E+00  0.22061E+00
  0.89998E-02  0.80521E+02    0.90000E-02 -0.42994E-02 -0.47006E-02  0.00000E+00  0.00000E+00  0.00000E+00    0.80519E+02  0.00000E+00  0.00000E+00 -0.18417E+00  0.12122E+00  0.22145E+00
  0.99998E-02  0.81023E+02    0.10000E-01 -0.47764E-02 -0.52236E-02  0.00000E+00  0.00000E+00  0.00000E+00    0.81021E+02  0.00000E+00  0.00000E+00 -0.18478E+00  0.12239E+00  0.22227E+00
  0.11000E-01  0.81522E+02    0.11000E-01 -0.52535E-02 -0.57465E-02  0.00000E+00  0.00000E+00  0.00000E+00    0.81520E+02  0.00000E+00  0.00000E+00 -0.18535E+00  0.12359E+00  0.22308E+00
  0.12000E-01  0.82018E+02    0.12000E-01 -0.57305E-02 -0.62695E-02  0.00000E+00  0.00000E+00  0.00000E+00    0.82016E+02  0.00000E+00  0.00000E+00 -0.18588E+00  0.12480E+00  0.22387E+00
  0.13000E-01  0.82511E+02    0.13000E-01 -0.62075E-02 -0.67925E-02  0.00000E+00  0.00000E+00  0.00000E+00    0.82509E+02  0.00000E+00  0.00000E+00 -0.18638E+00  0.12603E+00  0.22465E+00
  0.14000E-01  0.83000E+02    0.14000E-01 -0.66845E-02 -0.73155E-02  0.00000E+00  0.00000E+00  0.00000E+00    0.82999E+02  0.00000E+00  0.00000E+00 -0.18684E+00  0.12729E+00  0.22541E+00
  0.15000E-01  0.83487E+02    0.15000E-01 -0.71615E-02 -0.78385E-02  0.00000E+00  0.00000E+00  0.00000E+00    0.83485E+02  0.00000E+00  0.00000E+00 -0.18726E+00  0.12856E+00  0.22617E+00
  0.16000E-01  0.83971E+02    0.16000E-01 -0.76384E-02 -0.83616E-02  0.00000E+00  0.00000E+00  0.00000E+00    0.83969E+02  0.00000E+00  0.00000E+00 -0.18765E+00  0.12986E+00  0.22691E+00
  0.17000E-01  0.84452E+02    0.17000E-01 -0.81153E-02 -0.88847E-02  0.00000E+00  0.00000E+00  0.00000E+00    0.84450E+02  0.00000E+00  0.00000E+00 -0.18800E+00  0.13117E+00  0.22765E+00
  0.18000E-01  0.84930E+02    0.18000E-01 -0.85922E-02 -0.94078E-02  0.00000E+00  0.00000E+00  0.00000E+00    0.84928E+02  0.00000E+00  0.00000E+00 -0.18832E+00  0.13250E+00  0.22837E+00
  0.19000E-01  0.85405E+02    0.19000E-01 -0.90691E-02 -0.99309E-02  0.00000E+00  0.00000E+00  0.00000E+00    0.85403E+02  0.00000E+00  0.00000E+00 -0.18860E+00  0.13385E+00  0.22909E+00
  0.20000E-01  0.85877E+02    0.20000E-01 -0.95459E-02 -0.10454E-01  0.00000E+00  0.00000E+00  0.00000E+00    0.85875E+02  0.00000E+00  0.00000E+00 -0.18885E+00  0.13522E+00  0.22979E+00
  0.21000E-01  0.86347E+02    0.21000E-01 -0.10023E-01 -0.10977E-01  0.00000E+00  0.00000E+00  0.00000E+00    0.86345E+02  0.00000E+00  0.00000E+00 -0.18907E+00  0.13660E+00  0.23049E+00
  0.22000E-01  0.86813E+02    0.22000E-01 -0.10500E-01 -0.11500E-01  0.00000E+00  0.00000E+00  0.00000E+00    0.86812E+02  0.00000E+00  0.00000E+00 -0.18925E+00  0.13801E+00  0.23118E+00
  0.22999E-01  0.87277E+02    0.23000E-01 -0.10976E-01 -0.12024E-01  0.00000E+00  0.00000E+00  0.00000E+00    0.87275E+02  0.00000E+00  0.00000E+00 -0.18940E+00  0.13943E+00  0.23186E+00
  0.23999E-01  0.87738E+02    0.24000E-01 -0.11453E-01 -0.12547E-01  0.00000E+00  0.00000E+00  0.00000E+00    0.87736E+02  0.00000E+00  0.00000E+00 -0.18951E+00  0.14088E+00  0.23253E+00
  0.24999E-01  0.88197E+02    0.25000E-01 -0.11930E-01 -0.13070E-01  0.00000E+00  0.00000E+00  0.00000E+00    0.88195E+02  0.00000E+00  0.00000E+00 -0.18959E+00  0.14234E+00  0.23319E+00
  0.25999E-01  0.88652E+02    0.26000E-01 -0.12406E-01 -0.13594E-01  0.00000E+00  0.00000E+00  0.00000E+00    0.88650E+02  0.00000E+00  0.00000E+00 -0.18964E+00  0.14382E+00  0.23385E+00
  0.26999E-01  0.89105E+02    0.27000E-01 -0.12883E-01 -0.14117E-01  0.00000E+00  0.00000E+00  0.00000E+00    0.89103E+02  0.00000E+00  0.00000E+00 -0.18966E+00  0.14531E+00  0.23450E+00
  0.27999E-01  0.89555E+02    0.28000E-01 -0.13360E-01 -0.14640E-01  0.00000E+00  0.00000E+00  0.00000E+00    0.89553E+02  0.00000E+00  0.00000E+00 -0.18964E+00  0.14683E+00  0.23514E+00
  0.28999E-01  0.90003E+02    0.29000E-01 -0.13836E-01 -0.15164E-01  0.00000E+00  0.00000E+00  0.00000E+00    0.90001E+02  0.00000E+00  0.00000E+00 -0.18959E+00  0.14836E+00  0.23578E+00
  0.29999E-01  0.90448E+02    0.30000E-01 -0.14313E-01 -0.15687E-01  0.00000E+00  0.00000E+00  0.00000E+00    0.90446E+02  0.00000E+00  0.00000E+00 -0.18951E+00  0.14991E+00  0.23641E+00
  0.30999E-01  0.90890E+02    0.31000E-01 -0.14790E-01 -0.16210E-01  0.00000E+00  0.00000E+00  0.00000E+00    0.90888E+02  0.00000E+00  0.00000E+00 -0.18940E+00  0.15148E+00  0.23703E+00
  0.31999E-01  0.91330E+02    0.32000E-01 -0.15266E-01 -0.16734E-01  0.00000E+00  0.00000E+00  0.00000E+00    0.91328E+02  0.00000E+00  0.00000E+00 -0.18926E+00  0.15306E+00  0.23765E+00
  0.32999E-01  0.91767E+02    0.33000E-01 -0.15743E-01 -0.17257E-01  0.00000E+00  0.00000E+00  0.00000E+00    0.91765E+02  0.00000E+00  0.00000E+00 -0.18909E+00  0.15466E+00  0.23826E+00
  0.33999E-01  0.92201E+02    0.34000E-01 -0.16219E-01 -0.17781E-01  0.00000E+00  0.00000E+00  0.00000E+00    0.92199E+02  0.00000E+00  0.00000E+00 -0.18890E+00  0.15628E+00  0.23886E+00
  0.34999E-01  0.92633E+02    0.35000E-01 -0.16696E-01 -0.18304E-01  0.00000E+00  0.00000E+00  0.00000E+00    0.92631E+02  0.00000E+00  0.00000E+00 -0.18867E+00  0.15791E+00  0.23946E+00
  0.35999E-01  0.93063E+02    0.36000E-01 -0.17172E-01 -0.18828E-01  0.00000E+00  0.00000E+00  0.00000E+00    0.93061E+02  0.00000E+00  0.00000E+00 -0.18841E+00  0.15956E+00  0.24005E+00
  0.36999E-01  0.93490E+02    0.37000E-01 -0.17649E-01 -0.19351E-01  0.00000E+00  0.00000E+00  0.00000E+00    0.93488E+02  0.00000E+00  0.00000E+00 -0.18813E+00  0.16123E+00  0.24064E+00
  0.37999E-01  0.93914E+02    0.38000E-01 -0.18125E-01 -0.19875E-01  0.00000E+00  0.00000E+00  0.00000E+00    0.93912E+02  0.00000E+00  0.00000E+00 -0.18781E+00  0.16291E+00  0.24122E+00
  0.38999E-01  0.94336E+02    0.39000E-01 -0.18601E-01 -0.20399E-01  0.00000E+00  0.00000E+00  0.00000E+00    0.94334E+02  0.00000E+00  0.00000E+00 -0.18747E+00  0.16461E+00  0.24180E+00
  0.39999E-01  0.94756E+02    0.40000E-01 -0.19078E-01 -0.20922E-01  0.00000E+00  0.00000E+00  0.00000E+00    0.94754E+02  0.00000E+00  0.00000E+00 -0.18710E+00  0.16632E+00  0.24237E+00
  0.40999E-01  0.95173E+02    0.41000E-01 -0.19554E-01 -0.21446E-01  0.00000E+00  0.00000E+00  0.00000E+00    0.95171E+02  0.00000E+00  0.00000E+00 -0.18670E+00  0.16805E+00  0.24294E+00
  0.41999E-01  0.95588E+02    0.42000E-01 -0.20030E-01 -0.21970E-01  0.00000E+00  0.00000E+00  0.00000E+00    0.95586E+02  0.00000E+00  0.00000E+00 -0.18628E+00  0.16980E+00  0.24351E+00
  0.42999E-01  0.95969E+02    0.43000E-01 -0.20507E-01 -0.22493E-01  0.00000E+00  0.00000E+00  0.00000E+00    0.95967E+02  0.00000E+00  0.00000E+00 -0.18853E+00  0.17017E+00  0.24408E+00
  0.43999E-01  0.96406E+02    0.44000E-01 -0.20983E-01 -0.23017E-01  0.00000E+00  0.00000E+00  0.00000E+00    0.96404E+02  0.00000E+00  0.00000E+00 -0.18553E+00  0.17321E+00  0.24459E+00
  0.44999E-01  0.96787E+02    0.45000E-01 -0.21459E-01 -0.23541E-01  0.00000E+00  0.00000E+00  0.00000E+00    0.96785E+02  0.00000E+00  0.00000E+00 -0.18756E+00  0.17369E+00  0.24519E+00
  0.45999E-01  0.97194E+02    0.46000E-01 -0.21935E-01 -0.24065E-01  0.00000E+00  0.00000E+00  0.00000E+00    0.97192E+02  0.00000E+00  0.00000E+00 -0.18711E+00  0.17541E+00  0.24575E+00
  0.46999E-01  0.97597E+02    0.47000E-01 -0.22412E-01 -0.24588E-01  0.00000E+00  0.00000E+00  0.00000E+00    0.97595E+02  0.00000E+00  0.00000E+00 -0.18656E+00  0.17721E+00  0.24630E+00
  0.47999E-01  0.97998E+02    0.48000E-01 -0.22888E-01 -0.25112E-01  0.00000E+00  0.00000E+00  0.00000E+00    0.97996E+02  0.00000E+00  0.00000E+00 -0.18598E+00  0.17902E+00  0.24685E+00
  0.48999E-01  0.98397E+02    0.49000E-01 -0.23364E-01 -0.25636E-01  0.00000E+00  0.00000E+00  0.00000E+00    0.98395E+02  0.00000E+00  0.00000E+00 -0.18538E+00  0.18085E+00  0.24739E+00
  0.49999E-01  0.98793E+02    0.50000E-01 -0.23840E-01 -0.26160E-01  0.00000E+00  0.00000E+00  0.00000E+00    0.98791E+02  0.00000E+00  0.00000E+00 -0.18475E+00  0.18270E+00  0.24794E+00
  0.50999E-01  0.99187E+02    0.51000E-01 -0.24316E-01 -0.26684E-01  0.00000E+00  0.00000E+00  0.00000E+00    0.99185E+02  0.00000E+00  0.00000E+00 -0.18410E+00  0.18455E+00  0.24848E+00
  0.51999E-01  0.99579E+02    0.52000E-01 -0.24792E-01 -0.27208E-01  0.00000E+00  0.00000E+00  0.00000E+00    0.99577E+02  0.00000E+00  0.00000E+00 -0.18342E+00  0.18643E+00  0.24902E+00
  0.52999E-01  0.99985E+02    0.53000E-01 -0.25268E-01 -0.27732E-01  0.00000E+00  0.00000E+00  0.00000E+00    0.99983E+02  0.00000E+00  0.00000E+00 -0.18016E+00  0.18973E+00  0.24945E+00
  0.53999E-01  0.10035E+03    0.54000E-01 -0.25744E-01 -0.28256E-01  0.00000E+00  0.00000E+00  0.00000E+00    0.10035E+03  0.00000E+00  0.00000E+00 -0.18195E+00  0.19028E+00  0.25010E+00
  0.54999E-01  0.10076E+03    0.55000E-01 -0.26220E-01 -0.28780E-01  0.00000E+00  0.00000E+00  0.00000E+00    0.10076E+03  0.00000E+00  0.00000E+00 -0.17870E+00  0.19357E+00  0.25051E+00
  0.55999E-01  0.10112E+03    0.56000E-01 -0.26696E-01 -0.29304E-01  0.00000E+00  0.00000E+00  0.00000E+00    0.10112E+03  0.00000E+00  0.00000E+00 -0.18044E+00  0.19412E+00  0.25116E+00
  0.56999E-01  0.10150E+03    0.57000E-01 -0.27172E-01 -0.29828E-01  0.00000E+00  0.00000E+00  0.00000E+00    0.10149E+03  0.00000E+00  0.00000E+00 -0.18001E+00  0.19586E+00  0.25167E+00
  0.57999E-01  0.10189E+03    0.58000E-01 -0.27648E-01 -0.30352E-01  0.00000E+00  0.00000E+00  0.00000E+00    0.10188E+03  0.00000E+00  0.00000E+00 -0.17890E+00  0.19794E+00  0.25222E+00
  0.58999E-01  0.10225E+03    0.59000E-01 -0.28124E-01 -0.30876E-01  0.00000E+00  0.00000E+00  0.00000E+00    0.10225E+03  0.00000E+00  0.00000E+00 -0.17836E+00  0.19977E+00  0.25273E+00
  0.59999E-01  0.10264E+03    0.60000E-01 -0.28600E-01 -0.31400E-01  0.00000E+00  0.00000E+00  0.00000E+00    0.10263E+03  0.00000E+00  0.00000E+00 -0.17720E+00  0.20189E+00  0.25327E+00
  0.60999E-01  0.10300E+03    0.61000E-01 -0.29075E-01 -0.31925E-01  0.00000E+00  0.00000E+00  0.00000E+00    0.10300E+03  0.00000E+00  0.00000E+00 -0.17662E+00  0.20374E+00  0.25379E+00
  0.61999E-01  0.10338E+03    0.62000E-01 -0.29551E-01 -0.32449E-01  0.00000E+00  0.00000E+00  0.00000E+00    0.10338E+03  0.00000E+00  0.00000E+00 -0.17542E+00  0.20589E+00  0.25433E+00
  0.62999E-01  0.10374E+03    0.63000E-01 -0.30027E-01 -0.32973E-01  0.00000E+00  0.00000E+00  0.00000E+00    0.10374E+03  0.00000E+00  0.00000E+00 -0.17479E+00  0.20777E+00  0.25485E+00
  0.63999E-01  0.10412E+03    0.64000E-01 -0.30503E-01 -0.33497E-01  0.00000E+00  0.00000E+00  0.00000E+00    0.10411E+03  0.00000E+00  0.00000E+00 -0.17355E+00  0.20994E+00  0.25538E+00
  0.64999E-01  0.10447E+03    0.65000E-01 -0.30978E-01 -0.34022E-01  0.00000E+00  0.00000E+00  0.00000E+00    0.10447E+03  0.00000E+00  0.00000E+00 -0.17288E+00  0.21184E+00  0.25590E+00
  0.65999E-01  0.10484E+03    0.66000E-01 -0.31454E-01 -0.34546E-01  0.00000E+00  0.00000E+00  0.00000E+00    0.10484E+03  0.00000E+00  0.00000E+00 -0.17159E+00  0.21404E+00  0.25644E+00
  0.66999E-01  0.10519E+03    0.67000E-01 -0.31930E-01 -0.35070E-01  0.00000E+00  0.00000E+00  0.00000E+00    0.10519E+03  0.00000E+00  0.00000E+00 -0.17088E+00  0.21597E+00  0.25696E+00
  0.67999E-01  0.10555E+03    0.68000E-01 -0.32405E-01 -0.35595E-01  0.00000E+00  0.00000E+00  0.00000E+00    0.10555E+03  0.00000E+00  0.00000E+00 -0.16991E+00  0.21803E+00  0.25749E+00
  0.68999E-01  0.10591E+03    0.69000E-01 -0.32881E-01 -0.36119E-01  0.00000E+00  0.00000E+00  0.00000E+00    0.10590E+03  0.00000E+00  0.00000E+00 -0.16887E+00  0.22012E+00  0.25802E+00
  0.69999E-01  0.10626E+03    0.70000E-01 -0.33357E-01 -0.36643E-01  0.00000E+00  0.00000E+00  0.00000E+00    0.10626E+03  0.00000E+00  0.00000E+00 -0.16780E+00  0.22223E+00  0.25856E+00
  0.70999E-01  0.10661E+03    0.71000E-01 -0.33832E-01 -0.37168E-01  0.00000E+00  0.00000E+00  0.00000E+00    0.10661E+03  0.00000E+00  0.00000E+00 -0.16671E+00  0.22435E+00  0.25909E+00
  0.71999E-01  0.10697E+03    0.72000E-01 -0.34308E-01 -0.37692E-01  0.00000E+00  0.00000E+00  0.00000E+00    0.10696E+03  0.00000E+00  0.00000E+00 -0.16561E+00  0.22649E+00  0.25963E+00
  0.72998E-01  0.10732E+03    0.73000E-01 -0.34783E-01 -0.38217E-01  0.00000E+00  0.00000E+00  0.00000E+00    0.10731E+03  0.00000E+00  0.00000E+00 -0.16448E+00  0.22864E+00  0.26017E+00
  0.73998E-01  0.10766E+03    0.74000E-01 -0.35259E-01 -0.38741E-01  0.00000E+00  0.00000E+00  0.00000E+00    0.10766E+03  0.00000E+00  0.00000E+00 -0.16334E+00  0.23080E+00  0.26071E+00
  0.74998E-01  0.10801E+03    0.75000E-01 -0.35734E-01 -0.39266E-01  0.00000E+00  0.00000E+00  0.00000E+00    0.10801E+03  0.00000E+00  0.00000E+00 -0.16217E+00  0.23297E+00  0.26126E+00
  0.75998E-01  0.10835E+03    0.76000E-01 -0.36209E-01 -0.39791E-01  0.00000E+00  0.00000E+00  0.00000E+00    0.10835E+03  0.00000E+00  0.00000E+00 -0.16099E+00  0.23516E+00  0.26180E+00
  0.76998E-01  0.10869E+03    0.77000E-01 -0.36685E-01 -0.40315E-01  0.00000E+00  0.00000E+00  0.00000E+00    0.10869E+03  0.00000E+00  0.00000E+00 -0.15979E+00  0.23736E+00  0.26236E+00
  0.77998E-01  0.10903E+03    0.78000E-01 -0.37160E-01 -0.40840E-01  0.00000E+00  0.00000E+00  0.00000E+00    0.10903E+03  0.00000E+00  0.00000E+00 -0.15857E+00  0.23958E+00  0.26291E+00
  0.78998E-01  0.10937E+03    0.79000E-01 -0.37636E-01 -0.41364E-01  0.00000E+00  0.00000E+00  0.00000E+00    0.10937E+03  0.00000E+00  0.00000E+00 -0.15733E+00  0.24180E+00  0.26348E+00
  0.79998E-01  0.10971E+03    0.80000E-01 -0.38111E-01 -0.41889E-01  0.00000E+00  0.00000E+00  0.00000E+00    0.10971E+03  0.00000E+00  0.00000E+00 -0.15608E+00  0.24404E+00  0.26404E+00
  0.80998E-01  0.11004E+03    0.81000E-01 -0.38586E-01 -0.42414E-01  0.00000E+00  0.00000E+00  0.00000E+00    0.11004E+03  0.00000E+00  0.00000E+00 -0.15480E+00  0.24630E+00  0.26461E+00
  0.81998E-01  0.11038E+03    0.82000E-01 -0.39061E-01 -0.42939E-01  0.00000E+00  0.00000E+00  0.00000E+00    0.11037E+03  0.00000E+00  0.00000E+00 -0.15351E+00  0.24857E+00  0.26519E+00
  0.82998E-01  0.11071E+03    0.83000E-01 -0.39537E-01 -0.43463E-01  0.00000E+00  0.00000E+00  0.00000E+00    0.11071E+03  0.00000E+00  0.00000E+00 -0.14616E+00  0.25369E+00  0.26580E+00
  0.83998E-01  0.11102E+03    0.84000E-01 -0.40012E-01 -0.43988E-01  0.00000E+00  0.00000E+00  0.00000E+00    0.11102E+03  0.00000E+00  0.00000E+00 -0.14641E+00  0.25564E+00  0.26647E+00
  0.84998E-01  0.11134E+03    0.85000E-01 -0.40487E-01 -0.44513E-01  0.00000E+00  0.00000E+00  0.00000E+00    0.11134E+03  0.00000E+00  0.00000E+00 -0.14483E+00  0.25804E+00  0.26709E+00
  0.85998E-01  0.11166E+03    0.86000E-01 -0.40962E-01 -0.45038E-01  0.00000E+00  0.00000E+00  0.00000E+00    0.11166E+03  0.00000E+00  0.00000E+00 -0.14347E+00  0.26038E+00  0.26770E+00
  0.86998E-01  0.11199E+03    0.87000E-01 -0.41437E-01 -0.45563E-01  0.00000E+00  0.00000E+00  0.00000E+00    0.11199E+03  0.00000E+00  0.00000E+00 -0.14209E+00  0.26274E+00  0.26831E+00
  0.87998E-01  0.11235E+03    0.88000E-01 -0.41912E-01 -0.46088E-01  0.00000E+00  0.00000E+00  0.00000E+00    0.11235E+03  0.00000E+00  0.00000E+00 -0.13932E+00  0.26569E+00  0.26885E+00
  0.88998E-01  0.11268E+03    0.89000E-01 -0.42387E-01 -0.46613E-01  0.00000E+00  0.00000E+00  0.00000E+00    0.11268E+03  0.00000E+00  0.00000E+00 -0.13827E+00  0.26800E+00  0.26946E+00
  0.89998E-01  0.11300E+03    0.90000E-01 -0.42862E-01 -0.47138E-01  0.00000E+00  0.00000E+00  0.00000E+00    0.11300E+03  0.00000E+00  0.00000E+00 -0.13685E+00  0.27041E+00  0.27009E+00
  0.90998E-01  0.11332E+03    0.91000E-01 -0.43337E-01 -0.47663E-01  0.00000E+00  0.00000E+00  0.00000E+00    0.11332E+03  0.00000E+00  0.00000E+00 -0.13541E+00  0.27284E+00  0.27073E+00
  0.91998E-01  0.11364E+03    0.92000E-01 -0.43812E-01 -0.48188E-01  0.00000E+00  0.00000E+00  0.00000E+00    0.11363E+03  0.00000E+00  0.00000E+00 -0.13395E+00  0.27528E+00  0.27138E+00
  0.92998E-01  0.11395E+03    0.93000E-01 -0.44287E-01 -0.48713E-01  0.00000E+00  0.00000E+00  0.00000E+00    0.11395E+03  0.00000E+00  0.00000E+00 -0.13249E+00  0.27773E+00  0.27204E+00
  0.93998E-01  0.11426E+03    0.94000E-01 -0.44762E-01 -0.49238E-01  0.00000E+00  0.00000E+00  0.00000E+00    0.11426E+03  0.00000E+00  0.00000E+00 -0.13100E+00  0.28020E+00  0.27271E+00
  0.94998E-01  0.11458E+03    0.95000E-01 -0.45237E-01 -0.49763E-01  0.00000E+00  0.00000E+00  0.00000E+00    0.11457E+03  0.00000E+00  0.00000E+00 -0.12951E+00  0.28269E+00  0.27339E+00
  0.95998E-01  0.11489E+03    0.96000E-01 -0.45712E-01 -0.50288E-01  0.00000E+00  0.00000E+00  0.00000E+00    0.11488E+03  0.00000E+00  0.00000E+00 -0.12800E+00  0.28519E+00  0.27408E+00
  0.96998E-01  0.11519E+03    0.97000E-01 -0.46187E-01 -0.50813E-01  0.00000E+00  0.00000E+00  0.00000E+00    0.11519E+03  0.00000E+00  0.00000E+00 -0.12647E+00  0.28771E+00  0.27478E+00
  0.97998E-01  0.11550E+03    0.98000E-01 -0.46662E-01 -0.51338E-01  0.00000E+00  0.00000E+00  0.00000E+00    0.11550E+03  0.00000E+00  0.00000E+00 -0.12494E+00  0.29024E+00  0.27549E+00
  0.98998E-01  0.11581E+03    0.99000E-01 -0.47137E-01 -0.51863E-01  0.00000E+00  0.00000E+00  0.00000E+00    0.11580E+03  0.00000E+00  0.00000E+00 -0.12338E+00  0.29279E+00  0.27621E+00
  0.99998E-01  0.11611E+03    0.10000E+00 -0.47611E-01 -0.52389E-01  0.00000E+00  0.00000E+00  0.00000E+00    0.11611E+03  0.00000E+00  0.00000E+00 -0.12182E+00  0.29536E+00  0.27695E+00
