          Evm          Svm            E11          E22          E33          E23          E13          E12         SCAU11       SCAU22       SCAU33       SCAU23       SCAU13       SCAU12      TEMP
  0.00000E+00  0.78995E+02    0.00000E+00  0.00000E+00  0.00000E+00  0.00000E+00  0.00000E+00  0.00000E+00    0.78993E+02  0.00000E+00  0.00000E+00 -0.18321E+00  0.11359E+00  0.21827E+00
  0.99998E-03  0.79496E+02    0.10000E-02 -0.47967E-03 -0.52033E-03  0.00000E+00  0.00000E+00  0.00000E+00    0.79494E+02  0.00000E+00  0.00000E+00 -0.18719E+00  0.11631E+00  0.22114E+00
  0.20000E-02  0.79969E+02    0.20000E-02 -0.95784E-03 -0.10422E-02  0.00000E+00  0.00000E+00  0.00000E+00    0.79967E+02  0.00000E+00  0.00000E+00 -0.18747E+00  0.11723E+00  0.22303E+00
  0.29999E-02  0.80492E+02    0.30000E-02 -0.14356E-02 -0.15644E-02  0.00000E+00  0.00000E+00  0.00000E+00    0.80490E+02  0.00000E+00  0.00000E+00 -0.18842E+00  0.11826E+00  0.22433E+00
  0.39999E-02  0.81005E+02    0.40000E-02 -0.19132E-02 -0.20868E-02  0.00000E+00  0.00000E+00  0.00000E+00    0.81003E+02  0.00000E+00  0.00000E+00 -0.18753E+00  0.12006E+00  0.22537E+00
  0.49999E-02  0.81529E+02    0.50000E-02 -0.23906E-02 -0.26094E-02  0.00000E+00  0.00000E+00  0.00000E+00    0.81528E+02  0.00000E+00  0.00000E+00 -0.18833E+00  0.12124E+00  0.22640E+00
  0.59999E-02  0.82044E+02    0.60000E-02 -0.28679E-02 -0.31321E-02  0.00000E+00  0.00000E+00  0.00000E+00    0.82043E+02  0.00000E+00  0.00000E+00 -0.18907E+00  0.12236E+00  0.22731E+00
  0.69998E-02  0.82556E+02    0.70000E-02 -0.33451E-02 -0.36549E-02  0.00000E+00  0.00000E+00  0.00000E+00    0.82554E+02  0.00000E+00  0.00000E+00 -0.18977E+00  0.12349E+00  0.22818E+00
  0.79998E-02  0.83064E+02    0.80000E-02 -0.38223E-02 -0.41777E-02  0.00000E+00  0.00000E+00  0.00000E+00    0.83062E+02  0.00000E+00  0.00000E+00 -0.19042E+00  0.12464E+00  0.22903E+00
  0.89998E-02  0.83569E+02    0.90000E-02 -0.42994E-02 -0.47006E-02  0.00000E+00  0.00000E+00  0.00000E+00    0.83567E+02  0.00000E+00  0.00000E+00 -0.19105E+00  0.12582E+00  0.22986E+00
  0.99998E-02  0.84071E+02    0.10000E-01 -0.47765E-02 -0.52235E-02  0.00000E+00  0.00000E+00  0.00000E+00    0.84069E+02  0.00000E+00  0.00000E+00 -0.19163E+00  0.12701E+00  0.23067E+00
  0.11000E-01  0.84570E+02    0.11000E-01 -0.52536E-02 -0.57464E-02  0.00000E+00  0.00000E+00  0.00000E+00    0.84568E+02  0.00000E+00  0.00000E+00 -0.19217E+00  0.12823E+00  0.23146E+00
  0.12000E-01  0.85066E+02    0.12000E-01 -0.57306E-02 -0.62694E-02  0.00000E+00  0.00000E+00  0.00000E+00    0.85064E+02  0.00000E+00  0.00000E+00 -0.19268E+00  0.12947E+00  0.23223E+00
  0.13000E-01  0.85559E+02    0.13000E-01 -0.62076E-02 -0.67924E-02  0.00000E+00  0.00000E+00  0.00000E+00    0.85557E+02  0.00000E+00  0.00000E+00 -0.19315E+00  0.13072E+00  0.23300E+00
  0.14000E-01  0.86049E+02    0.14000E-01 -0.66846E-02 -0.73154E-02  0.00000E+00  0.00000E+00  0.00000E+00    0.86047E+02  0.00000E+00  0.00000E+00 -0.19358E+00  0.13200E+00  0.23375E+00
  0.15000E-01  0.86536E+02    0.15000E-01 -0.71615E-02 -0.78385E-02  0.00000E+00  0.00000E+00  0.00000E+00    0.86534E+02  0.00000E+00  0.00000E+00 -0.19397E+00  0.13329E+00  0.23449E+00
  0.16000E-01  0.87020E+02    0.16000E-01 -0.76385E-02 -0.83615E-02  0.00000E+00  0.00000E+00  0.00000E+00    0.87018E+02  0.00000E+00  0.00000E+00 -0.19433E+00  0.13461E+00  0.23521E+00
  0.17000E-01  0.87501E+02    0.17000E-01 -0.81154E-02 -0.88846E-02  0.00000E+00  0.00000E+00  0.00000E+00    0.87499E+02  0.00000E+00  0.00000E+00 -0.19466E+00  0.13594E+00  0.23593E+00
  0.18000E-01  0.87979E+02    0.18000E-01 -0.85923E-02 -0.94077E-02  0.00000E+00  0.00000E+00  0.00000E+00    0.87977E+02  0.00000E+00  0.00000E+00 -0.19494E+00  0.13730E+00  0.23664E+00
  0.19000E-01  0.88454E+02    0.19000E-01 -0.90691E-02 -0.99309E-02  0.00000E+00  0.00000E+00  0.00000E+00    0.88452E+02  0.00000E+00  0.00000E+00 -0.19520E+00  0.13867E+00  0.23734E+00
  0.20000E-01  0.88926E+02    0.20000E-01 -0.95460E-02 -0.10454E-01  0.00000E+00  0.00000E+00  0.00000E+00    0.88924E+02  0.00000E+00  0.00000E+00 -0.19542E+00  0.14007E+00  0.23803E+00
  0.21000E-01  0.89396E+02    0.21000E-01 -0.10023E-01 -0.10977E-01  0.00000E+00  0.00000E+00  0.00000E+00    0.89394E+02  0.00000E+00  0.00000E+00 -0.19560E+00  0.14148E+00  0.23871E+00
  0.22000E-01  0.89863E+02    0.22000E-01 -0.10500E-01 -0.11500E-01  0.00000E+00  0.00000E+00  0.00000E+00    0.89861E+02  0.00000E+00  0.00000E+00 -0.19575E+00  0.14291E+00  0.23938E+00
  0.22999E-01  0.90327E+02    0.23000E-01 -0.10976E-01 -0.12024E-01  0.00000E+00  0.00000E+00  0.00000E+00    0.90325E+02  0.00000E+00  0.00000E+00 -0.19586E+00  0.14436E+00  0.24004E+00
  0.23999E-01  0.90788E+02    0.24000E-01 -0.11453E-01 -0.12547E-01  0.00000E+00  0.00000E+00  0.00000E+00    0.90786E+02  0.00000E+00  0.00000E+00 -0.19595E+00  0.14583E+00  0.24070E+00
  0.24999E-01  0.91246E+02    0.25000E-01 -0.11930E-01 -0.13070E-01  0.00000E+00  0.00000E+00  0.00000E+00    0.91244E+02  0.00000E+00  0.00000E+00 -0.19599E+00  0.14731E+00  0.24135E+00
  0.25999E-01  0.91702E+02    0.26000E-01 -0.12407E-01 -0.13593E-01  0.00000E+00  0.00000E+00  0.00000E+00    0.91700E+02  0.00000E+00  0.00000E+00 -0.19601E+00  0.14882E+00  0.24198E+00
  0.26999E-01  0.92155E+02    0.27000E-01 -0.12883E-01 -0.14117E-01  0.00000E+00  0.00000E+00  0.00000E+00    0.92153E+02  0.00000E+00  0.00000E+00 -0.19599E+00  0.15034E+00  0.24262E+00
  0.27999E-01  0.92605E+02    0.28000E-01 -0.13360E-01 -0.14640E-01  0.00000E+00  0.00000E+00  0.00000E+00    0.92603E+02  0.00000E+00  0.00000E+00 -0.19594E+00  0.15188E+00  0.24324E+00
  0.28999E-01  0.93053E+02    0.29000E-01 -0.13836E-01 -0.15164E-01  0.00000E+00  0.00000E+00  0.00000E+00    0.93051E+02  0.00000E+00  0.00000E+00 -0.19586E+00  0.15344E+00  0.24386E+00
  0.29999E-01  0.93498E+02    0.30000E-01 -0.14313E-01 -0.15687E-01  0.00000E+00  0.00000E+00  0.00000E+00    0.93496E+02  0.00000E+00  0.00000E+00 -0.19575E+00  0.15502E+00  0.24448E+00
  0.30999E-01  0.93940E+02    0.31000E-01 -0.14790E-01 -0.16210E-01  0.00000E+00  0.00000E+00  0.00000E+00    0.93938E+02  0.00000E+00  0.00000E+00 -0.19560E+00  0.15662E+00  0.24508E+00
  0.31999E-01  0.94380E+02    0.32000E-01 -0.15266E-01 -0.16734E-01  0.00000E+00  0.00000E+00  0.00000E+00    0.94378E+02  0.00000E+00  0.00000E+00 -0.19543E+00  0.15823E+00  0.24568E+00
  0.32999E-01  0.94817E+02    0.33000E-01 -0.15743E-01 -0.17257E-01  0.00000E+00  0.00000E+00  0.00000E+00    0.94815E+02  0.00000E+00  0.00000E+00 -0.19522E+00  0.15986E+00  0.24628E+00
  0.33999E-01  0.95252E+02    0.34000E-01 -0.16219E-01 -0.17781E-01  0.00000E+00  0.00000E+00  0.00000E+00    0.95250E+02  0.00000E+00  0.00000E+00 -0.19499E+00  0.16150E+00  0.24686E+00
  0.34999E-01  0.95684E+02    0.35000E-01 -0.16696E-01 -0.18304E-01  0.00000E+00  0.00000E+00  0.00000E+00    0.95682E+02  0.00000E+00  0.00000E+00 -0.19473E+00  0.16317E+00  0.24745E+00
  0.35999E-01  0.96113E+02    0.36000E-01 -0.17172E-01 -0.18828E-01  0.00000E+00  0.00000E+00  0.00000E+00    0.96111E+02  0.00000E+00  0.00000E+00 -0.19443E+00  0.16485E+00  0.24803E+00
  0.36999E-01  0.96541E+02    0.37000E-01 -0.17649E-01 -0.19351E-01  0.00000E+00  0.00000E+00  0.00000E+00    0.96539E+02  0.00000E+00  0.00000E+00 -0.19411E+00  0.16655E+00  0.24860E+00
  0.37999E-01  0.96965E+02    0.38000E-01 -0.18125E-01 -0.19875E-01  0.00000E+00  0.00000E+00  0.00000E+00    0.96963E+02  0.00000E+00  0.00000E+00 -0.19376E+00  0.16826E+00  0.24917E+00
  0.38999E-01  0.97355E+02    0.39000E-01 -0.18601E-01 -0.20399E-01  0.00000E+00  0.00000E+00  0.00000E+00    0.97353E+02  0.00000E+00  0.00000E+00 -0.19607E+00  0.16865E+00  0.24972E+00
  0.39999E-01  0.97803E+02    0.40000E-01 -0.19078E-01 -0.20922E-01  0.00000E+00  0.00000E+00  0.00000E+00    0.97801E+02  0.00000E+00  0.00000E+00 -0.19315E+00  0.17162E+00  0.25026E+00
  0.40999E-01  0.98192E+02    0.41000E-01 -0.19554E-01 -0.21446E-01  0.00000E+00  0.00000E+00  0.00000E+00    0.98190E+02  0.00000E+00  0.00000E+00 -0.19525E+00  0.17212E+00  0.25084E+00
  0.41999E-01  0.98608E+02    0.42000E-01 -0.20030E-01 -0.21970E-01  0.00000E+00  0.00000E+00  0.00000E+00    0.98606E+02  0.00000E+00  0.00000E+00 -0.19486E+00  0.17381E+00  0.25140E+00
  0.42999E-01  0.99021E+02    0.43000E-01 -0.20507E-01 -0.22493E-01  0.00000E+00  0.00000E+00  0.00000E+00    0.99019E+02  0.00000E+00  0.00000E+00 -0.19438E+00  0.17558E+00  0.25195E+00
  0.43999E-01  0.99431E+02    0.44000E-01 -0.20983E-01 -0.23017E-01  0.00000E+00  0.00000E+00  0.00000E+00    0.99429E+02  0.00000E+00  0.00000E+00 -0.19387E+00  0.17737E+00  0.25250E+00
  0.44999E-01  0.99839E+02    0.45000E-01 -0.21459E-01 -0.23541E-01  0.00000E+00  0.00000E+00  0.00000E+00    0.99837E+02  0.00000E+00  0.00000E+00 -0.19333E+00  0.17917E+00  0.25304E+00
  0.45999E-01  0.10024E+03    0.46000E-01 -0.21935E-01 -0.24065E-01  0.00000E+00  0.00000E+00  0.00000E+00    0.10024E+03  0.00000E+00  0.00000E+00 -0.19276E+00  0.18099E+00  0.25358E+00
  0.46999E-01  0.10065E+03    0.47000E-01 -0.22412E-01 -0.24588E-01  0.00000E+00  0.00000E+00  0.00000E+00    0.10065E+03  0.00000E+00  0.00000E+00 -0.19217E+00  0.18283E+00  0.25412E+00
  0.47999E-01  0.10105E+03    0.48000E-01 -0.22888E-01 -0.25112E-01  0.00000E+00  0.00000E+00  0.00000E+00    0.10105E+03  0.00000E+00  0.00000E+00 -0.19156E+00  0.18467E+00  0.25466E+00
  0.48999E-01  0.10147E+03    0.49000E-01 -0.23364E-01 -0.25636E-01  0.00000E+00  0.00000E+00  0.00000E+00    0.10146E+03  0.00000E+00  0.00000E+00 -0.18833E+00  0.18790E+00  0.25510E+00
  0.49999E-01  0.10184E+03    0.50000E-01 -0.23840E-01 -0.26160E-01  0.00000E+00  0.00000E+00  0.00000E+00    0.10184E+03  0.00000E+00  0.00000E+00 -0.19020E+00  0.18848E+00  0.25572E+00
  0.50999E-01  0.10226E+03    0.51000E-01 -0.24316E-01 -0.26684E-01  0.00000E+00  0.00000E+00  0.00000E+00    0.10225E+03  0.00000E+00  0.00000E+00 -0.18699E+00  0.19171E+00  0.25615E+00
  0.51999E-01  0.10263E+03    0.52000E-01 -0.24792E-01 -0.27208E-01  0.00000E+00  0.00000E+00  0.00000E+00    0.10263E+03  0.00000E+00  0.00000E+00 -0.18879E+00  0.19228E+00  0.25678E+00
  0.52999E-01  0.10304E+03    0.53000E-01 -0.25268E-01 -0.27732E-01  0.00000E+00  0.00000E+00  0.00000E+00    0.10304E+03  0.00000E+00  0.00000E+00 -0.18553E+00  0.19557E+00  0.25719E+00
  0.53999E-01  0.10341E+03    0.54000E-01 -0.25744E-01 -0.28256E-01  0.00000E+00  0.00000E+00  0.00000E+00    0.10341E+03  0.00000E+00  0.00000E+00 -0.18728E+00  0.19614E+00  0.25783E+00
  0.54999E-01  0.10378E+03    0.55000E-01 -0.26220E-01 -0.28780E-01  0.00000E+00  0.00000E+00  0.00000E+00    0.10378E+03  0.00000E+00  0.00000E+00 -0.18686E+00  0.19789E+00  0.25833E+00
  0.55999E-01  0.10418E+03    0.56000E-01 -0.26696E-01 -0.29304E-01  0.00000E+00  0.00000E+00  0.00000E+00    0.10418E+03  0.00000E+00  0.00000E+00 -0.18576E+00  0.19998E+00  0.25887E+00
  0.56999E-01  0.10455E+03    0.57000E-01 -0.27172E-01 -0.29828E-01  0.00000E+00  0.00000E+00  0.00000E+00    0.10455E+03  0.00000E+00  0.00000E+00 -0.18522E+00  0.20182E+00  0.25937E+00
  0.57999E-01  0.10494E+03    0.58000E-01 -0.27648E-01 -0.30352E-01  0.00000E+00  0.00000E+00  0.00000E+00    0.10494E+03  0.00000E+00  0.00000E+00 -0.18407E+00  0.20394E+00  0.25990E+00
  0.58999E-01  0.10530E+03    0.59000E-01 -0.28124E-01 -0.30876E-01  0.00000E+00  0.00000E+00  0.00000E+00    0.10530E+03  0.00000E+00  0.00000E+00 -0.18348E+00  0.20581E+00  0.26041E+00
  0.59999E-01  0.10569E+03    0.60000E-01 -0.28600E-01 -0.31400E-01  0.00000E+00  0.00000E+00  0.00000E+00    0.10569E+03  0.00000E+00  0.00000E+00 -0.18229E+00  0.20796E+00  0.26094E+00
  0.60999E-01  0.10605E+03    0.61000E-01 -0.29075E-01 -0.31925E-01  0.00000E+00  0.00000E+00  0.00000E+00    0.10605E+03  0.00000E+00  0.00000E+00 -0.18166E+00  0.20985E+00  0.26145E+00
  0.61999E-01  0.10643E+03    0.62000E-01 -0.29551E-01 -0.32449E-01  0.00000E+00  0.00000E+00  0.00000E+00    0.10643E+03  0.00000E+00  0.00000E+00 -0.18042E+00  0.21203E+00  0.26197E+00
  0.62999E-01  0.10679E+03    0.63000E-01 -0.30027E-01 -0.32973E-01  0.00000E+00  0.00000E+00  0.00000E+00    0.10679E+03  0.00000E+00  0.00000E+00 -0.17975E+00  0.21395E+00  0.26248E+00
  0.63999E-01  0.10716E+03    0.64000E-01 -0.30503E-01 -0.33497E-01  0.00000E+00  0.00000E+00  0.00000E+00    0.10716E+03  0.00000E+00  0.00000E+00 -0.17882E+00  0.21600E+00  0.26299E+00
  0.64999E-01  0.10752E+03    0.65000E-01 -0.30978E-01 -0.34022E-01  0.00000E+00  0.00000E+00  0.00000E+00    0.10752E+03  0.00000E+00  0.00000E+00 -0.17782E+00  0.21808E+00  0.26351E+00
  0.65999E-01  0.10789E+03    0.66000E-01 -0.31454E-01 -0.34546E-01  0.00000E+00  0.00000E+00  0.00000E+00    0.10788E+03  0.00000E+00  0.00000E+00 -0.17678E+00  0.22017E+00  0.26403E+00
  0.66999E-01  0.10825E+03    0.67000E-01 -0.31930E-01 -0.35070E-01  0.00000E+00  0.00000E+00  0.00000E+00    0.10824E+03  0.00000E+00  0.00000E+00 -0.17573E+00  0.22228E+00  0.26455E+00
  0.67999E-01  0.10861E+03    0.68000E-01 -0.32405E-01 -0.35595E-01  0.00000E+00  0.00000E+00  0.00000E+00    0.10860E+03  0.00000E+00  0.00000E+00 -0.17466E+00  0.22440E+00  0.26507E+00
  0.68999E-01  0.10896E+03    0.69000E-01 -0.32881E-01 -0.36119E-01  0.00000E+00  0.00000E+00  0.00000E+00    0.10896E+03  0.00000E+00  0.00000E+00 -0.17357E+00  0.22654E+00  0.26559E+00
  0.69999E-01  0.10932E+03    0.70000E-01 -0.33357E-01 -0.36643E-01  0.00000E+00  0.00000E+00  0.00000E+00    0.10932E+03  0.00000E+00  0.00000E+00 -0.17246E+00  0.22868E+00  0.26612E+00
  0.70999E-01  0.10967E+03    0.71000E-01 -0.33832E-01 -0.37168E-01  0.00000E+00  0.00000E+00  0.00000E+00    0.10967E+03  0.00000E+00  0.00000E+00 -0.17133E+00  0.23084E+00  0.26665E+00
  0.71999E-01  0.11002E+03    0.72000E-01 -0.34308E-01 -0.37692E-01  0.00000E+00  0.00000E+00  0.00000E+00    0.11002E+03  0.00000E+00  0.00000E+00 -0.17018E+00  0.23302E+00  0.26717E+00
  0.72998E-01  0.11037E+03    0.73000E-01 -0.34783E-01 -0.38217E-01  0.00000E+00  0.00000E+00  0.00000E+00    0.11037E+03  0.00000E+00  0.00000E+00 -0.16901E+00  0.23521E+00  0.26771E+00
  0.73998E-01  0.11072E+03    0.74000E-01 -0.35259E-01 -0.38741E-01  0.00000E+00  0.00000E+00  0.00000E+00    0.11072E+03  0.00000E+00  0.00000E+00 -0.16782E+00  0.23740E+00  0.26824E+00
  0.74998E-01  0.11106E+03    0.75000E-01 -0.35734E-01 -0.39266E-01  0.00000E+00  0.00000E+00  0.00000E+00    0.11106E+03  0.00000E+00  0.00000E+00 -0.16661E+00  0.23962E+00  0.26878E+00
  0.75998E-01  0.11141E+03    0.76000E-01 -0.36209E-01 -0.39791E-01  0.00000E+00  0.00000E+00  0.00000E+00    0.11141E+03  0.00000E+00  0.00000E+00 -0.16538E+00  0.24185E+00  0.26932E+00
  0.76998E-01  0.11175E+03    0.77000E-01 -0.36685E-01 -0.40315E-01  0.00000E+00  0.00000E+00  0.00000E+00    0.11175E+03  0.00000E+00  0.00000E+00 -0.16414E+00  0.24409E+00  0.26987E+00
  0.77998E-01  0.11209E+03    0.78000E-01 -0.37160E-01 -0.40840E-01  0.00000E+00  0.00000E+00  0.00000E+00    0.11209E+03  0.00000E+00  0.00000E+00 -0.16287E+00  0.24634E+00  0.27042E+00
  0.78998E-01  0.11243E+03    0.79000E-01 -0.37635E-01 -0.41365E-01  0.00000E+00  0.00000E+00  0.00000E+00    0.11243E+03  0.00000E+00  0.00000E+00 -0.16159E+00  0.24861E+00  0.27097E+00
  0.79998E-01  0.11277E+03    0.80000E-01 -0.38111E-01 -0.41889E-01  0.00000E+00  0.00000E+00  0.00000E+00    0.11277E+03  0.00000E+00  0.00000E+00 -0.15423E+00  0.25368E+00  0.27156E+00
  0.80998E-01  0.11308E+03    0.81000E-01 -0.38586E-01 -0.42414E-01  0.00000E+00  0.00000E+00  0.00000E+00    0.11308E+03  0.00000E+00  0.00000E+00 -0.15449E+00  0.25564E+00  0.27220E+00
  0.81998E-01  0.11341E+03    0.82000E-01 -0.39061E-01 -0.42939E-01  0.00000E+00  0.00000E+00  0.00000E+00    0.11341E+03  0.00000E+00  0.00000E+00 -0.15291E+00  0.25804E+00  0.27279E+00
  0.82998E-01  0.11374E+03    0.83000E-01 -0.39536E-01 -0.43464E-01  0.00000E+00  0.00000E+00  0.00000E+00    0.11374E+03  0.00000E+00  0.00000E+00 -0.15155E+00  0.26039E+00  0.27338E+00
  0.83998E-01  0.11407E+03    0.84000E-01 -0.40012E-01 -0.43988E-01  0.00000E+00  0.00000E+00  0.00000E+00    0.11407E+03  0.00000E+00  0.00000E+00 -0.15018E+00  0.26275E+00  0.27397E+00
  0.84998E-01  0.11444E+03    0.85000E-01 -0.40487E-01 -0.44513E-01  0.00000E+00  0.00000E+00  0.00000E+00    0.11444E+03  0.00000E+00  0.00000E+00 -0.14742E+00  0.26568E+00  0.27449E+00
  0.85998E-01  0.11478E+03    0.86000E-01 -0.40962E-01 -0.45038E-01  0.00000E+00  0.00000E+00  0.00000E+00    0.11477E+03  0.00000E+00  0.00000E+00 -0.14637E+00  0.26799E+00  0.27507E+00
  0.86998E-01  0.11510E+03    0.87000E-01 -0.41437E-01 -0.45563E-01  0.00000E+00  0.00000E+00  0.00000E+00    0.11510E+03  0.00000E+00  0.00000E+00 -0.14496E+00  0.27040E+00  0.27567E+00
  0.87998E-01  0.11542E+03    0.88000E-01 -0.41912E-01 -0.46088E-01  0.00000E+00  0.00000E+00  0.00000E+00    0.11542E+03  0.00000E+00  0.00000E+00 -0.14351E+00  0.27282E+00  0.27628E+00
  0.88998E-01  0.11574E+03    0.89000E-01 -0.42387E-01 -0.46613E-01  0.00000E+00  0.00000E+00  0.00000E+00    0.11574E+03  0.00000E+00  0.00000E+00 -0.14206E+00  0.27526E+00  0.27690E+00
  0.89998E-01  0.11606E+03    0.90000E-01 -0.42862E-01 -0.47138E-01  0.00000E+00  0.00000E+00  0.00000E+00    0.11606E+03  0.00000E+00  0.00000E+00 -0.14059E+00  0.27771E+00  0.27753E+00
  0.90998E-01  0.11638E+03    0.91000E-01 -0.43337E-01 -0.47663E-01  0.00000E+00  0.00000E+00  0.00000E+00    0.11638E+03  0.00000E+00  0.00000E+00 -0.13911E+00  0.28018E+00  0.27817E+00
  0.91998E-01  0.11670E+03    0.92000E-01 -0.43812E-01 -0.48188E-01  0.00000E+00  0.00000E+00  0.00000E+00    0.11670E+03  0.00000E+00  0.00000E+00 -0.13761E+00  0.28267E+00  0.27882E+00
  0.92998E-01  0.11701E+03    0.93000E-01 -0.44287E-01 -0.48713E-01  0.00000E+00  0.00000E+00  0.00000E+00    0.11701E+03  0.00000E+00  0.00000E+00 -0.13610E+00  0.28516E+00  0.27948E+00
  0.93998E-01  0.11733E+03    0.94000E-01 -0.44762E-01 -0.49238E-01  0.00000E+00  0.00000E+00  0.00000E+00    0.11732E+03  0.00000E+00  0.00000E+00 -0.13457E+00  0.28768E+00  0.28014E+00
  0.94998E-01  0.11764E+03    0.95000E-01 -0.45237E-01 -0.49763E-01  0.00000E+00  0.00000E+00  0.00000E+00    0.11764E+03  0.00000E+00  0.00000E+00 -0.13303E+00  0.29021E+00  0.28082E+00
  0.95998E-01  0.11795E+03    0.96000E-01 -0.45712E-01 -0.50288E-01  0.00000E+00  0.00000E+00  0.00000E+00    0.11795E+03  0.00000E+00  0.00000E+00 -0.13147E+00  0.29276E+00  0.28151E+00
  0.96998E-01  0.11826E+03    0.97000E-01 -0.46187E-01 -0.50813E-01  0.00000E+00  0.00000E+00  0.00000E+00    0.11825E+03  0.00000E+00  0.00000E+00 -0.12990E+00  0.29532E+00  0.28221E+00
  0.97998E-01  0.11856E+03    0.98000E-01 -0.46661E-01 -0.51339E-01  0.00000E+00  0.00000E+00  0.00000E+00    0.11856E+03  0.00000E+00  0.00000E+00 -0.12832E+00  0.29790E+00  0.28292E+00
  0.98998E-01  0.11887E+03    0.99000E-01 -0.47136E-01 -0.51864E-01  0.00000E+00  0.00000E+00  0.00000E+00    0.11887E+03  0.00000E+00  0.00000E+00 -0.12672E+00  0.30050E+00  0.28364E+00
  0.99998E-01  0.11917E+03    0.10000E+00 -0.47611E-01 -0.52389E-01  0.00000E+00  0.00000E+00  0.00000E+00    0.11917E+03  0.00000E+00  0.00000E+00 -0.12511E+00  0.30311E+00  0.28437E+00
