          Evm          Svm            E11          E22          E33          E23          E13          E12         SCAU11       SCAU22       SCAU33       SCAU23       SCAU13       SCAU12      TEMP
  0.00000E+00  0.80095E+02    0.00000E+00  0.00000E+00  0.00000E+00  0.00000E+00  0.00000E+00  0.00000E+00    0.80094E+02  0.00000E+00  0.00000E+00 -0.18577E+00  0.11517E+00  0.22131E+00
  0.99998E-03  0.80596E+02    0.10000E-02 -0.47967E-03 -0.52033E-03  0.00000E+00  0.00000E+00  0.00000E+00    0.80595E+02  0.00000E+00  0.00000E+00 -0.18974E+00  0.11792E+00  0.22421E+00
  0.20000E-02  0.81070E+02    0.20000E-02 -0.95784E-03 -0.10422E-02  0.00000E+00  0.00000E+00  0.00000E+00    0.81068E+02  0.00000E+00  0.00000E+00 -0.19001E+00  0.11884E+00  0.22611E+00
  0.29999E-02  0.81584E+02    0.30000E-02 -0.14356E-02 -0.15644E-02  0.00000E+00  0.00000E+00  0.00000E+00    0.81582E+02  0.00000E+00  0.00000E+00 -0.18925E+00  0.12064E+00  0.22732E+00
  0.39999E-02  0.82113E+02    0.40000E-02 -0.19132E-02 -0.20868E-02  0.00000E+00  0.00000E+00  0.00000E+00    0.82111E+02  0.00000E+00  0.00000E+00 -0.19008E+00  0.12180E+00  0.22847E+00
  0.49999E-02  0.82631E+02    0.50000E-02 -0.23906E-02 -0.26094E-02  0.00000E+00  0.00000E+00  0.00000E+00    0.82629E+02  0.00000E+00  0.00000E+00 -0.19086E+00  0.12289E+00  0.22944E+00
  0.59999E-02  0.83145E+02    0.60000E-02 -0.28679E-02 -0.31321E-02  0.00000E+00  0.00000E+00  0.00000E+00    0.83144E+02  0.00000E+00  0.00000E+00 -0.19158E+00  0.12400E+00  0.23035E+00
  0.69998E-02  0.83657E+02    0.70000E-02 -0.33452E-02 -0.36548E-02  0.00000E+00  0.00000E+00  0.00000E+00    0.83655E+02  0.00000E+00  0.00000E+00 -0.19227E+00  0.12514E+00  0.23122E+00
  0.79998E-02  0.84165E+02    0.80000E-02 -0.38224E-02 -0.41776E-02  0.00000E+00  0.00000E+00  0.00000E+00    0.84163E+02  0.00000E+00  0.00000E+00 -0.19292E+00  0.12630E+00  0.23207E+00
  0.89998E-02  0.84670E+02    0.90000E-02 -0.42995E-02 -0.47005E-02  0.00000E+00  0.00000E+00  0.00000E+00    0.84668E+02  0.00000E+00  0.00000E+00 -0.19353E+00  0.12748E+00  0.23289E+00
  0.99998E-02  0.85172E+02    0.10000E-01 -0.47766E-02 -0.52234E-02  0.00000E+00  0.00000E+00  0.00000E+00    0.85170E+02  0.00000E+00  0.00000E+00 -0.19410E+00  0.12868E+00  0.23370E+00
  0.11000E-01  0.85671E+02    0.11000E-01 -0.52537E-02 -0.57463E-02  0.00000E+00  0.00000E+00  0.00000E+00    0.85669E+02  0.00000E+00  0.00000E+00 -0.19463E+00  0.12991E+00  0.23448E+00
  0.12000E-01  0.86167E+02    0.12000E-01 -0.57307E-02 -0.62693E-02  0.00000E+00  0.00000E+00  0.00000E+00    0.86165E+02  0.00000E+00  0.00000E+00 -0.19513E+00  0.13115E+00  0.23525E+00
  0.13000E-01  0.86660E+02    0.13000E-01 -0.62077E-02 -0.67923E-02  0.00000E+00  0.00000E+00  0.00000E+00    0.86658E+02  0.00000E+00  0.00000E+00 -0.19559E+00  0.13241E+00  0.23601E+00
  0.14000E-01  0.87150E+02    0.14000E-01 -0.66847E-02 -0.73153E-02  0.00000E+00  0.00000E+00  0.00000E+00    0.87148E+02  0.00000E+00  0.00000E+00 -0.19601E+00  0.13370E+00  0.23676E+00
  0.15000E-01  0.87637E+02    0.15000E-01 -0.71616E-02 -0.78384E-02  0.00000E+00  0.00000E+00  0.00000E+00    0.87635E+02  0.00000E+00  0.00000E+00 -0.19640E+00  0.13500E+00  0.23749E+00
  0.16000E-01  0.88121E+02    0.16000E-01 -0.76386E-02 -0.83614E-02  0.00000E+00  0.00000E+00  0.00000E+00    0.88119E+02  0.00000E+00  0.00000E+00 -0.19675E+00  0.13633E+00  0.23821E+00
  0.17000E-01  0.88602E+02    0.17000E-01 -0.81155E-02 -0.88845E-02  0.00000E+00  0.00000E+00  0.00000E+00    0.88600E+02  0.00000E+00  0.00000E+00 -0.19706E+00  0.13767E+00  0.23893E+00
  0.18000E-01  0.89080E+02    0.18000E-01 -0.85924E-02 -0.94076E-02  0.00000E+00  0.00000E+00  0.00000E+00    0.89078E+02  0.00000E+00  0.00000E+00 -0.19734E+00  0.13903E+00  0.23962E+00
  0.19000E-01  0.89555E+02    0.19000E-01 -0.90692E-02 -0.99308E-02  0.00000E+00  0.00000E+00  0.00000E+00    0.89553E+02  0.00000E+00  0.00000E+00 -0.19758E+00  0.14042E+00  0.24032E+00
  0.20000E-01  0.90028E+02    0.20000E-01 -0.95461E-02 -0.10454E-01  0.00000E+00  0.00000E+00  0.00000E+00    0.90026E+02  0.00000E+00  0.00000E+00 -0.19778E+00  0.14182E+00  0.24100E+00
  0.21000E-01  0.90497E+02    0.21000E-01 -0.10023E-01 -0.10977E-01  0.00000E+00  0.00000E+00  0.00000E+00    0.90495E+02  0.00000E+00  0.00000E+00 -0.19796E+00  0.14324E+00  0.24168E+00
  0.22000E-01  0.90964E+02    0.22000E-01 -0.10500E-01 -0.11500E-01  0.00000E+00  0.00000E+00  0.00000E+00    0.90962E+02  0.00000E+00  0.00000E+00 -0.19809E+00  0.14468E+00  0.24234E+00
  0.22999E-01  0.91428E+02    0.23000E-01 -0.10976E-01 -0.12024E-01  0.00000E+00  0.00000E+00  0.00000E+00    0.91426E+02  0.00000E+00  0.00000E+00 -0.19820E+00  0.14614E+00  0.24300E+00
  0.23999E-01  0.91889E+02    0.24000E-01 -0.11453E-01 -0.12547E-01  0.00000E+00  0.00000E+00  0.00000E+00    0.91887E+02  0.00000E+00  0.00000E+00 -0.19827E+00  0.14762E+00  0.24365E+00
  0.24999E-01  0.92348E+02    0.25000E-01 -0.11930E-01 -0.13070E-01  0.00000E+00  0.00000E+00  0.00000E+00    0.92346E+02  0.00000E+00  0.00000E+00 -0.19830E+00  0.14911E+00  0.24429E+00
  0.25999E-01  0.92804E+02    0.26000E-01 -0.12407E-01 -0.13593E-01  0.00000E+00  0.00000E+00  0.00000E+00    0.92802E+02  0.00000E+00  0.00000E+00 -0.19831E+00  0.15063E+00  0.24492E+00
  0.26999E-01  0.93257E+02    0.27000E-01 -0.12883E-01 -0.14117E-01  0.00000E+00  0.00000E+00  0.00000E+00    0.93255E+02  0.00000E+00  0.00000E+00 -0.19828E+00  0.15216E+00  0.24555E+00
  0.27999E-01  0.93707E+02    0.28000E-01 -0.13360E-01 -0.14640E-01  0.00000E+00  0.00000E+00  0.00000E+00    0.93705E+02  0.00000E+00  0.00000E+00 -0.19821E+00  0.15371E+00  0.24617E+00
  0.28999E-01  0.94155E+02    0.29000E-01 -0.13837E-01 -0.15163E-01  0.00000E+00  0.00000E+00  0.00000E+00    0.94153E+02  0.00000E+00  0.00000E+00 -0.19812E+00  0.15528E+00  0.24679E+00
  0.29999E-01  0.94600E+02    0.30000E-01 -0.14313E-01 -0.15687E-01  0.00000E+00  0.00000E+00  0.00000E+00    0.94598E+02  0.00000E+00  0.00000E+00 -0.19799E+00  0.15687E+00  0.24739E+00
  0.30999E-01  0.95042E+02    0.31000E-01 -0.14790E-01 -0.16210E-01  0.00000E+00  0.00000E+00  0.00000E+00    0.95040E+02  0.00000E+00  0.00000E+00 -0.19784E+00  0.15847E+00  0.24799E+00
  0.31999E-01  0.95482E+02    0.32000E-01 -0.15266E-01 -0.16734E-01  0.00000E+00  0.00000E+00  0.00000E+00    0.95480E+02  0.00000E+00  0.00000E+00 -0.19765E+00  0.16010E+00  0.24859E+00
  0.32999E-01  0.95919E+02    0.33000E-01 -0.15743E-01 -0.17257E-01  0.00000E+00  0.00000E+00  0.00000E+00    0.95917E+02  0.00000E+00  0.00000E+00 -0.19744E+00  0.16173E+00  0.24917E+00
  0.33999E-01  0.96354E+02    0.34000E-01 -0.16219E-01 -0.17781E-01  0.00000E+00  0.00000E+00  0.00000E+00    0.96352E+02  0.00000E+00  0.00000E+00 -0.19719E+00  0.16339E+00  0.24976E+00
  0.34999E-01  0.96786E+02    0.35000E-01 -0.16696E-01 -0.18304E-01  0.00000E+00  0.00000E+00  0.00000E+00    0.96784E+02  0.00000E+00  0.00000E+00 -0.19691E+00  0.16507E+00  0.25034E+00
  0.35999E-01  0.97216E+02    0.36000E-01 -0.17172E-01 -0.18828E-01  0.00000E+00  0.00000E+00  0.00000E+00    0.97214E+02  0.00000E+00  0.00000E+00 -0.19660E+00  0.16676E+00  0.25091E+00
  0.36999E-01  0.97643E+02    0.37000E-01 -0.17649E-01 -0.19351E-01  0.00000E+00  0.00000E+00  0.00000E+00    0.97641E+02  0.00000E+00  0.00000E+00 -0.19627E+00  0.16847E+00  0.25147E+00
  0.37999E-01  0.98034E+02    0.38000E-01 -0.18125E-01 -0.19875E-01  0.00000E+00  0.00000E+00  0.00000E+00    0.98032E+02  0.00000E+00  0.00000E+00 -0.19860E+00  0.16887E+00  0.25203E+00
  0.38999E-01  0.98485E+02    0.39000E-01 -0.18602E-01 -0.20398E-01  0.00000E+00  0.00000E+00  0.00000E+00    0.98483E+02  0.00000E+00  0.00000E+00 -0.19569E+00  0.17182E+00  0.25256E+00
  0.39999E-01  0.98876E+02    0.40000E-01 -0.19078E-01 -0.20922E-01  0.00000E+00  0.00000E+00  0.00000E+00    0.98874E+02  0.00000E+00  0.00000E+00 -0.19780E+00  0.17232E+00  0.25314E+00
  0.40999E-01  0.99295E+02    0.41000E-01 -0.19554E-01 -0.21446E-01  0.00000E+00  0.00000E+00  0.00000E+00    0.99293E+02  0.00000E+00  0.00000E+00 -0.19743E+00  0.17401E+00  0.25370E+00
  0.41999E-01  0.99710E+02    0.42000E-01 -0.20031E-01 -0.21969E-01  0.00000E+00  0.00000E+00  0.00000E+00    0.99708E+02  0.00000E+00  0.00000E+00 -0.19696E+00  0.17577E+00  0.25425E+00
  0.42999E-01  0.10012E+03    0.43000E-01 -0.20507E-01 -0.22493E-01  0.00000E+00  0.00000E+00  0.00000E+00    0.10012E+03  0.00000E+00  0.00000E+00 -0.19646E+00  0.17756E+00  0.25479E+00
  0.43999E-01  0.10053E+03    0.44000E-01 -0.20983E-01 -0.23017E-01  0.00000E+00  0.00000E+00  0.00000E+00    0.10053E+03  0.00000E+00  0.00000E+00 -0.19594E+00  0.17936E+00  0.25534E+00
  0.44999E-01  0.10094E+03    0.45000E-01 -0.21459E-01 -0.23541E-01  0.00000E+00  0.00000E+00  0.00000E+00    0.10094E+03  0.00000E+00  0.00000E+00 -0.19538E+00  0.18118E+00  0.25588E+00
  0.45999E-01  0.10135E+03    0.46000E-01 -0.21936E-01 -0.24064E-01  0.00000E+00  0.00000E+00  0.00000E+00    0.10135E+03  0.00000E+00  0.00000E+00 -0.19480E+00  0.18301E+00  0.25641E+00
  0.46999E-01  0.10175E+03    0.47000E-01 -0.22412E-01 -0.24588E-01  0.00000E+00  0.00000E+00  0.00000E+00    0.10175E+03  0.00000E+00  0.00000E+00 -0.19420E+00  0.18486E+00  0.25695E+00
  0.47999E-01  0.10217E+03    0.48000E-01 -0.22888E-01 -0.25112E-01  0.00000E+00  0.00000E+00  0.00000E+00    0.10217E+03  0.00000E+00  0.00000E+00 -0.19098E+00  0.18807E+00  0.25739E+00
  0.48999E-01  0.10255E+03    0.49000E-01 -0.23364E-01 -0.25636E-01  0.00000E+00  0.00000E+00  0.00000E+00    0.10255E+03  0.00000E+00  0.00000E+00 -0.19286E+00  0.18866E+00  0.25801E+00
  0.49999E-01  0.10296E+03    0.50000E-01 -0.23840E-01 -0.26160E-01  0.00000E+00  0.00000E+00  0.00000E+00    0.10296E+03  0.00000E+00  0.00000E+00 -0.18966E+00  0.19187E+00  0.25843E+00
  0.50999E-01  0.10334E+03    0.51000E-01 -0.24316E-01 -0.26684E-01  0.00000E+00  0.00000E+00  0.00000E+00    0.10334E+03  0.00000E+00  0.00000E+00 -0.19147E+00  0.19245E+00  0.25906E+00
  0.51999E-01  0.10375E+03    0.52000E-01 -0.24792E-01 -0.27208E-01  0.00000E+00  0.00000E+00  0.00000E+00    0.10375E+03  0.00000E+00  0.00000E+00 -0.18822E+00  0.19573E+00  0.25947E+00
  0.52999E-01  0.10412E+03    0.53000E-01 -0.25268E-01 -0.27732E-01  0.00000E+00  0.00000E+00  0.00000E+00    0.10412E+03  0.00000E+00  0.00000E+00 -0.18999E+00  0.19631E+00  0.26011E+00
  0.53999E-01  0.10450E+03    0.54000E-01 -0.25744E-01 -0.28256E-01  0.00000E+00  0.00000E+00  0.00000E+00    0.10450E+03  0.00000E+00  0.00000E+00 -0.18957E+00  0.19806E+00  0.26061E+00
  0.54999E-01  0.10490E+03    0.55000E-01 -0.26220E-01 -0.28780E-01  0.00000E+00  0.00000E+00  0.00000E+00    0.10490E+03  0.00000E+00  0.00000E+00 -0.18848E+00  0.20015E+00  0.26114E+00
  0.55999E-01  0.10527E+03    0.56000E-01 -0.26696E-01 -0.29304E-01  0.00000E+00  0.00000E+00  0.00000E+00    0.10527E+03  0.00000E+00  0.00000E+00 -0.18794E+00  0.20199E+00  0.26164E+00
  0.56999E-01  0.10566E+03    0.57000E-01 -0.27172E-01 -0.29828E-01  0.00000E+00  0.00000E+00  0.00000E+00    0.10566E+03  0.00000E+00  0.00000E+00 -0.18680E+00  0.20411E+00  0.26217E+00
  0.57999E-01  0.10603E+03    0.58000E-01 -0.27648E-01 -0.30352E-01  0.00000E+00  0.00000E+00  0.00000E+00    0.10603E+03  0.00000E+00  0.00000E+00 -0.18622E+00  0.20598E+00  0.26267E+00
  0.58999E-01  0.10642E+03    0.59000E-01 -0.28124E-01 -0.30876E-01  0.00000E+00  0.00000E+00  0.00000E+00    0.10642E+03  0.00000E+00  0.00000E+00 -0.18504E+00  0.20813E+00  0.26319E+00
  0.59999E-01  0.10678E+03    0.60000E-01 -0.28600E-01 -0.31400E-01  0.00000E+00  0.00000E+00  0.00000E+00    0.10678E+03  0.00000E+00  0.00000E+00 -0.18441E+00  0.21002E+00  0.26370E+00
  0.60999E-01  0.10717E+03    0.61000E-01 -0.29075E-01 -0.31925E-01  0.00000E+00  0.00000E+00  0.00000E+00    0.10716E+03  0.00000E+00  0.00000E+00 -0.18318E+00  0.21220E+00  0.26422E+00
  0.61999E-01  0.10753E+03    0.62000E-01 -0.29551E-01 -0.32449E-01  0.00000E+00  0.00000E+00  0.00000E+00    0.10752E+03  0.00000E+00  0.00000E+00 -0.18252E+00  0.21412E+00  0.26472E+00
  0.62999E-01  0.10789E+03    0.63000E-01 -0.30027E-01 -0.32973E-01  0.00000E+00  0.00000E+00  0.00000E+00    0.10789E+03  0.00000E+00  0.00000E+00 -0.18159E+00  0.21617E+00  0.26523E+00
  0.63999E-01  0.10826E+03    0.64000E-01 -0.30503E-01 -0.33497E-01  0.00000E+00  0.00000E+00  0.00000E+00    0.10826E+03  0.00000E+00  0.00000E+00 -0.18060E+00  0.21824E+00  0.26575E+00
  0.64999E-01  0.10863E+03    0.65000E-01 -0.30978E-01 -0.34022E-01  0.00000E+00  0.00000E+00  0.00000E+00    0.10862E+03  0.00000E+00  0.00000E+00 -0.17957E+00  0.22034E+00  0.26626E+00
  0.65999E-01  0.10899E+03    0.66000E-01 -0.31454E-01 -0.34546E-01  0.00000E+00  0.00000E+00  0.00000E+00    0.10899E+03  0.00000E+00  0.00000E+00 -0.17853E+00  0.22245E+00  0.26678E+00
  0.66999E-01  0.10935E+03    0.67000E-01 -0.31930E-01 -0.35070E-01  0.00000E+00  0.00000E+00  0.00000E+00    0.10935E+03  0.00000E+00  0.00000E+00 -0.17746E+00  0.22457E+00  0.26729E+00
  0.67999E-01  0.10971E+03    0.68000E-01 -0.32405E-01 -0.35595E-01  0.00000E+00  0.00000E+00  0.00000E+00    0.10971E+03  0.00000E+00  0.00000E+00 -0.17637E+00  0.22671E+00  0.26781E+00
  0.68999E-01  0.11007E+03    0.69000E-01 -0.32881E-01 -0.36119E-01  0.00000E+00  0.00000E+00  0.00000E+00    0.11006E+03  0.00000E+00  0.00000E+00 -0.17527E+00  0.22886E+00  0.26833E+00
  0.69999E-01  0.11042E+03    0.70000E-01 -0.33357E-01 -0.36643E-01  0.00000E+00  0.00000E+00  0.00000E+00    0.11042E+03  0.00000E+00  0.00000E+00 -0.17414E+00  0.23101E+00  0.26885E+00
  0.70999E-01  0.11077E+03    0.71000E-01 -0.33832E-01 -0.37168E-01  0.00000E+00  0.00000E+00  0.00000E+00    0.11077E+03  0.00000E+00  0.00000E+00 -0.17299E+00  0.23319E+00  0.26938E+00
  0.71999E-01  0.11113E+03    0.72000E-01 -0.34308E-01 -0.37692E-01  0.00000E+00  0.00000E+00  0.00000E+00    0.11112E+03  0.00000E+00  0.00000E+00 -0.17182E+00  0.23538E+00  0.26990E+00
  0.72998E-01  0.11148E+03    0.73000E-01 -0.34783E-01 -0.38217E-01  0.00000E+00  0.00000E+00  0.00000E+00    0.11147E+03  0.00000E+00  0.00000E+00 -0.17064E+00  0.23758E+00  0.27043E+00
  0.73998E-01  0.11182E+03    0.74000E-01 -0.35259E-01 -0.38741E-01  0.00000E+00  0.00000E+00  0.00000E+00    0.11182E+03  0.00000E+00  0.00000E+00 -0.16943E+00  0.23979E+00  0.27096E+00
  0.74998E-01  0.11217E+03    0.75000E-01 -0.35734E-01 -0.39266E-01  0.00000E+00  0.00000E+00  0.00000E+00    0.11217E+03  0.00000E+00  0.00000E+00 -0.16821E+00  0.24202E+00  0.27150E+00
  0.75998E-01  0.11251E+03    0.76000E-01 -0.36209E-01 -0.39791E-01  0.00000E+00  0.00000E+00  0.00000E+00    0.11251E+03  0.00000E+00  0.00000E+00 -0.16697E+00  0.24426E+00  0.27204E+00
  0.76998E-01  0.11286E+03    0.77000E-01 -0.36685E-01 -0.40315E-01  0.00000E+00  0.00000E+00  0.00000E+00    0.11285E+03  0.00000E+00  0.00000E+00 -0.16571E+00  0.24652E+00  0.27258E+00
  0.77998E-01  0.11320E+03    0.78000E-01 -0.37160E-01 -0.40840E-01  0.00000E+00  0.00000E+00  0.00000E+00    0.11319E+03  0.00000E+00  0.00000E+00 -0.16443E+00  0.24879E+00  0.27313E+00
  0.78998E-01  0.11354E+03    0.79000E-01 -0.37635E-01 -0.41365E-01  0.00000E+00  0.00000E+00  0.00000E+00    0.11353E+03  0.00000E+00  0.00000E+00 -0.15706E+00  0.25384E+00  0.27371E+00
  0.79998E-01  0.11385E+03    0.80000E-01 -0.38111E-01 -0.41889E-01  0.00000E+00  0.00000E+00  0.00000E+00    0.11385E+03  0.00000E+00  0.00000E+00 -0.15733E+00  0.25581E+00  0.27434E+00
  0.80998E-01  0.11418E+03    0.81000E-01 -0.38586E-01 -0.42414E-01  0.00000E+00  0.00000E+00  0.00000E+00    0.11418E+03  0.00000E+00  0.00000E+00 -0.15575E+00  0.25821E+00  0.27492E+00
  0.81998E-01  0.11451E+03    0.82000E-01 -0.39061E-01 -0.42939E-01  0.00000E+00  0.00000E+00  0.00000E+00    0.11451E+03  0.00000E+00  0.00000E+00 -0.15439E+00  0.26056E+00  0.27550E+00
  0.82998E-01  0.11484E+03    0.83000E-01 -0.39537E-01 -0.43463E-01  0.00000E+00  0.00000E+00  0.00000E+00    0.11484E+03  0.00000E+00  0.00000E+00 -0.15302E+00  0.26292E+00  0.27608E+00
  0.83998E-01  0.11522E+03    0.84000E-01 -0.40012E-01 -0.43988E-01  0.00000E+00  0.00000E+00  0.00000E+00    0.11522E+03  0.00000E+00  0.00000E+00 -0.15026E+00  0.26585E+00  0.27660E+00
  0.84998E-01  0.11555E+03    0.85000E-01 -0.40487E-01 -0.44513E-01  0.00000E+00  0.00000E+00  0.00000E+00    0.11555E+03  0.00000E+00  0.00000E+00 -0.14921E+00  0.26816E+00  0.27716E+00
  0.85998E-01  0.11588E+03    0.86000E-01 -0.40962E-01 -0.45038E-01  0.00000E+00  0.00000E+00  0.00000E+00    0.11588E+03  0.00000E+00  0.00000E+00 -0.14779E+00  0.27057E+00  0.27776E+00
  0.86998E-01  0.11621E+03    0.87000E-01 -0.41437E-01 -0.45563E-01  0.00000E+00  0.00000E+00  0.00000E+00    0.11620E+03  0.00000E+00  0.00000E+00 -0.14635E+00  0.27299E+00  0.27836E+00
  0.87998E-01  0.11653E+03    0.88000E-01 -0.41912E-01 -0.46088E-01  0.00000E+00  0.00000E+00  0.00000E+00    0.11653E+03  0.00000E+00  0.00000E+00 -0.14490E+00  0.27543E+00  0.27897E+00
  0.88998E-01  0.11685E+03    0.89000E-01 -0.42387E-01 -0.46613E-01  0.00000E+00  0.00000E+00  0.00000E+00    0.11685E+03  0.00000E+00  0.00000E+00 -0.14343E+00  0.27788E+00  0.27959E+00
  0.89998E-01  0.11717E+03    0.90000E-01 -0.42862E-01 -0.47138E-01  0.00000E+00  0.00000E+00  0.00000E+00    0.11717E+03  0.00000E+00  0.00000E+00 -0.14195E+00  0.28035E+00  0.28022E+00
  0.90998E-01  0.11749E+03    0.91000E-01 -0.43337E-01 -0.47663E-01  0.00000E+00  0.00000E+00  0.00000E+00    0.11748E+03  0.00000E+00  0.00000E+00 -0.14045E+00  0.28284E+00  0.28086E+00
  0.91998E-01  0.11780E+03    0.92000E-01 -0.43812E-01 -0.48188E-01  0.00000E+00  0.00000E+00  0.00000E+00    0.11780E+03  0.00000E+00  0.00000E+00 -0.13893E+00  0.28534E+00  0.28150E+00
  0.92998E-01  0.11812E+03    0.93000E-01 -0.44287E-01 -0.48713E-01  0.00000E+00  0.00000E+00  0.00000E+00    0.11812E+03  0.00000E+00  0.00000E+00 -0.13740E+00  0.28785E+00  0.28216E+00
  0.93998E-01  0.11843E+03    0.94000E-01 -0.44762E-01 -0.49238E-01  0.00000E+00  0.00000E+00  0.00000E+00    0.11843E+03  0.00000E+00  0.00000E+00 -0.13586E+00  0.29038E+00  0.28283E+00
  0.94998E-01  0.11874E+03    0.95000E-01 -0.45237E-01 -0.49763E-01  0.00000E+00  0.00000E+00  0.00000E+00    0.11874E+03  0.00000E+00  0.00000E+00 -0.13430E+00  0.29293E+00  0.28350E+00
  0.95998E-01  0.11905E+03    0.96000E-01 -0.45712E-01 -0.50288E-01  0.00000E+00  0.00000E+00  0.00000E+00    0.11905E+03  0.00000E+00  0.00000E+00 -0.13273E+00  0.29549E+00  0.28419E+00
  0.96998E-01  0.11936E+03    0.97000E-01 -0.46187E-01 -0.50813E-01  0.00000E+00  0.00000E+00  0.00000E+00    0.11936E+03  0.00000E+00  0.00000E+00 -0.13114E+00  0.29807E+00  0.28489E+00
  0.97998E-01  0.11967E+03    0.98000E-01 -0.46661E-01 -0.51339E-01  0.00000E+00  0.00000E+00  0.00000E+00    0.11967E+03  0.00000E+00  0.00000E+00 -0.12954E+00  0.30067E+00  0.28560E+00
  0.98998E-01  0.11998E+03    0.99000E-01 -0.47136E-01 -0.51864E-01  0.00000E+00  0.00000E+00  0.00000E+00    0.11997E+03  0.00000E+00  0.00000E+00 -0.12792E+00  0.30328E+00  0.28632E+00
  0.99998E-01  0.12028E+03    0.10000E+00 -0.47611E-01 -0.52389E-01  0.00000E+00  0.00000E+00  0.00000E+00    0.12028E+03  0.00000E+00  0.00000E+00 -0.12630E+00  0.30591E+00  0.28706E+00
