          Evm          Svm            E11          E22          E33          E23          E13          E12         SCAU11       SCAU22       SCAU33       SCAU23       SCAU13       SCAU12      TEMP
  0.00000E+00  0.75399E+02    0.00000E+00  0.00000E+00  0.00000E+00  0.00000E+00  0.00000E+00  0.00000E+00    0.75397E+02  0.00000E+00  0.00000E+00 -0.17487E+00  0.10842E+00  0.20834E+00
  0.99998E-03  0.75901E+02    0.10000E-02 -0.47967E-03 -0.52033E-03  0.00000E+00  0.00000E+00  0.00000E+00    0.75899E+02  0.00000E+00  0.00000E+00 -0.17883E+00  0.11104E+00  0.21113E+00
  0.20000E-02  0.76374E+02    0.20000E-02 -0.95784E-03 -0.10422E-02  0.00000E+00  0.00000E+00  0.00000E+00    0.76372E+02  0.00000E+00  0.00000E+00 -0.17914E+00  0.11196E+00  0.21300E+00
  0.29999E-02  0.76896E+02    0.30000E-02 -0.14356E-02 -0.15644E-02  0.00000E+00  0.00000E+00  0.00000E+00    0.76894E+02  0.00000E+00  0.00000E+00 -0.18012E+00  0.11297E+00  0.21429E+00
  0.39999E-02  0.77417E+02    0.40000E-02 -0.19132E-02 -0.20868E-02  0.00000E+00  0.00000E+00  0.00000E+00    0.77415E+02  0.00000E+00  0.00000E+00 -0.18097E+00  0.11400E+00  0.21537E+00
  0.49999E-02  0.77926E+02    0.50000E-02 -0.23906E-02 -0.26094E-02  0.00000E+00  0.00000E+00  0.00000E+00    0.77924E+02  0.00000E+00  0.00000E+00 -0.18007E+00  0.11579E+00  0.21636E+00
  0.59999E-02  0.78447E+02    0.60000E-02 -0.28678E-02 -0.31322E-02  0.00000E+00  0.00000E+00  0.00000E+00    0.78445E+02  0.00000E+00  0.00000E+00 -0.18086E+00  0.11699E+00  0.21733E+00
  0.69998E-02  0.78959E+02    0.70000E-02 -0.33451E-02 -0.36549E-02  0.00000E+00  0.00000E+00  0.00000E+00    0.78957E+02  0.00000E+00  0.00000E+00 -0.18159E+00  0.11811E+00  0.21822E+00
  0.79998E-02  0.79467E+02    0.80000E-02 -0.38222E-02 -0.41778E-02  0.00000E+00  0.00000E+00  0.00000E+00    0.79465E+02  0.00000E+00  0.00000E+00 -0.18228E+00  0.11924E+00  0.21909E+00
  0.89998E-02  0.79972E+02    0.90000E-02 -0.42994E-02 -0.47006E-02  0.00000E+00  0.00000E+00  0.00000E+00    0.79970E+02  0.00000E+00  0.00000E+00 -0.18293E+00  0.12039E+00  0.21993E+00
  0.99998E-02  0.80474E+02    0.10000E-01 -0.47764E-02 -0.52236E-02  0.00000E+00  0.00000E+00  0.00000E+00    0.80472E+02  0.00000E+00  0.00000E+00 -0.18354E+00  0.12156E+00  0.22076E+00
  0.11000E-01  0.80973E+02    0.11000E-01 -0.52535E-02 -0.57465E-02  0.00000E+00  0.00000E+00  0.00000E+00    0.80971E+02  0.00000E+00  0.00000E+00 -0.18412E+00  0.12275E+00  0.22156E+00
  0.12000E-01  0.81469E+02    0.12000E-01 -0.57305E-02 -0.62695E-02  0.00000E+00  0.00000E+00  0.00000E+00    0.81467E+02  0.00000E+00  0.00000E+00 -0.18466E+00  0.12396E+00  0.22236E+00
  0.13000E-01  0.81961E+02    0.13000E-01 -0.62075E-02 -0.67925E-02  0.00000E+00  0.00000E+00  0.00000E+00    0.81960E+02  0.00000E+00  0.00000E+00 -0.18516E+00  0.12519E+00  0.22314E+00
  0.14000E-01  0.82451E+02    0.14000E-01 -0.66845E-02 -0.73155E-02  0.00000E+00  0.00000E+00  0.00000E+00    0.82449E+02  0.00000E+00  0.00000E+00 -0.18562E+00  0.12644E+00  0.22391E+00
  0.15000E-01  0.82938E+02    0.15000E-01 -0.71615E-02 -0.78385E-02  0.00000E+00  0.00000E+00  0.00000E+00    0.82936E+02  0.00000E+00  0.00000E+00 -0.18605E+00  0.12771E+00  0.22467E+00
  0.16000E-01  0.83422E+02    0.16000E-01 -0.76384E-02 -0.83616E-02  0.00000E+00  0.00000E+00  0.00000E+00    0.83420E+02  0.00000E+00  0.00000E+00 -0.18645E+00  0.12900E+00  0.22542E+00
  0.17000E-01  0.83903E+02    0.17000E-01 -0.81153E-02 -0.88847E-02  0.00000E+00  0.00000E+00  0.00000E+00    0.83901E+02  0.00000E+00  0.00000E+00 -0.18680E+00  0.13031E+00  0.22616E+00
  0.18000E-01  0.84381E+02    0.18000E-01 -0.85922E-02 -0.94078E-02  0.00000E+00  0.00000E+00  0.00000E+00    0.84379E+02  0.00000E+00  0.00000E+00 -0.18713E+00  0.13164E+00  0.22688E+00
  0.19000E-01  0.84856E+02    0.19000E-01 -0.90691E-02 -0.99309E-02  0.00000E+00  0.00000E+00  0.00000E+00    0.84854E+02  0.00000E+00  0.00000E+00 -0.18742E+00  0.13298E+00  0.22760E+00
  0.20000E-01  0.85328E+02    0.20000E-01 -0.95459E-02 -0.10454E-01  0.00000E+00  0.00000E+00  0.00000E+00    0.85326E+02  0.00000E+00  0.00000E+00 -0.18767E+00  0.13434E+00  0.22831E+00
  0.21000E-01  0.85797E+02    0.21000E-01 -0.10023E-01 -0.10977E-01  0.00000E+00  0.00000E+00  0.00000E+00    0.85796E+02  0.00000E+00  0.00000E+00 -0.18789E+00  0.13573E+00  0.22901E+00
  0.22000E-01  0.86264E+02    0.22000E-01 -0.10500E-01 -0.11500E-01  0.00000E+00  0.00000E+00  0.00000E+00    0.86262E+02  0.00000E+00  0.00000E+00 -0.18808E+00  0.13713E+00  0.22970E+00
  0.22999E-01  0.86728E+02    0.23000E-01 -0.10976E-01 -0.12024E-01  0.00000E+00  0.00000E+00  0.00000E+00    0.86726E+02  0.00000E+00  0.00000E+00 -0.18823E+00  0.13855E+00  0.23039E+00
  0.23999E-01  0.87189E+02    0.24000E-01 -0.11453E-01 -0.12547E-01  0.00000E+00  0.00000E+00  0.00000E+00    0.87187E+02  0.00000E+00  0.00000E+00 -0.18835E+00  0.13998E+00  0.23106E+00
  0.24999E-01  0.87647E+02    0.25000E-01 -0.11930E-01 -0.13070E-01  0.00000E+00  0.00000E+00  0.00000E+00    0.87645E+02  0.00000E+00  0.00000E+00 -0.18844E+00  0.14144E+00  0.23172E+00
  0.25999E-01  0.88103E+02    0.26000E-01 -0.12406E-01 -0.13594E-01  0.00000E+00  0.00000E+00  0.00000E+00    0.88101E+02  0.00000E+00  0.00000E+00 -0.18849E+00  0.14292E+00  0.23238E+00
  0.26999E-01  0.88556E+02    0.27000E-01 -0.12883E-01 -0.14117E-01  0.00000E+00  0.00000E+00  0.00000E+00    0.88554E+02  0.00000E+00  0.00000E+00 -0.18851E+00  0.14441E+00  0.23304E+00
  0.27999E-01  0.89006E+02    0.28000E-01 -0.13360E-01 -0.14640E-01  0.00000E+00  0.00000E+00  0.00000E+00    0.89004E+02  0.00000E+00  0.00000E+00 -0.18850E+00  0.14592E+00  0.23368E+00
  0.28999E-01  0.89453E+02    0.29000E-01 -0.13836E-01 -0.15164E-01  0.00000E+00  0.00000E+00  0.00000E+00    0.89451E+02  0.00000E+00  0.00000E+00 -0.18846E+00  0.14744E+00  0.23432E+00
  0.29999E-01  0.89898E+02    0.30000E-01 -0.14313E-01 -0.15687E-01  0.00000E+00  0.00000E+00  0.00000E+00    0.89896E+02  0.00000E+00  0.00000E+00 -0.18839E+00  0.14899E+00  0.23495E+00
  0.30999E-01  0.90340E+02    0.31000E-01 -0.14790E-01 -0.16210E-01  0.00000E+00  0.00000E+00  0.00000E+00    0.90338E+02  0.00000E+00  0.00000E+00 -0.18828E+00  0.15055E+00  0.23558E+00
  0.31999E-01  0.90780E+02    0.32000E-01 -0.15266E-01 -0.16734E-01  0.00000E+00  0.00000E+00  0.00000E+00    0.90778E+02  0.00000E+00  0.00000E+00 -0.18815E+00  0.15213E+00  0.23620E+00
  0.32999E-01  0.91217E+02    0.33000E-01 -0.15743E-01 -0.17257E-01  0.00000E+00  0.00000E+00  0.00000E+00    0.91215E+02  0.00000E+00  0.00000E+00 -0.18799E+00  0.15372E+00  0.23681E+00
  0.33999E-01  0.91652E+02    0.34000E-01 -0.16219E-01 -0.17781E-01  0.00000E+00  0.00000E+00  0.00000E+00    0.91650E+02  0.00000E+00  0.00000E+00 -0.18780E+00  0.15534E+00  0.23742E+00
  0.34999E-01  0.92083E+02    0.35000E-01 -0.16696E-01 -0.18304E-01  0.00000E+00  0.00000E+00  0.00000E+00    0.92082E+02  0.00000E+00  0.00000E+00 -0.18758E+00  0.15696E+00  0.23802E+00
  0.35999E-01  0.92513E+02    0.36000E-01 -0.17172E-01 -0.18828E-01  0.00000E+00  0.00000E+00  0.00000E+00    0.92511E+02  0.00000E+00  0.00000E+00 -0.18733E+00  0.15861E+00  0.23861E+00
  0.36999E-01  0.92940E+02    0.37000E-01 -0.17649E-01 -0.19351E-01  0.00000E+00  0.00000E+00  0.00000E+00    0.92938E+02  0.00000E+00  0.00000E+00 -0.18705E+00  0.16027E+00  0.23921E+00
  0.37999E-01  0.93364E+02    0.38000E-01 -0.18125E-01 -0.19875E-01  0.00000E+00  0.00000E+00  0.00000E+00    0.93362E+02  0.00000E+00  0.00000E+00 -0.18674E+00  0.16195E+00  0.23979E+00
  0.38999E-01  0.93786E+02    0.39000E-01 -0.18601E-01 -0.20399E-01  0.00000E+00  0.00000E+00  0.00000E+00    0.93784E+02  0.00000E+00  0.00000E+00 -0.18641E+00  0.16364E+00  0.24037E+00
  0.39999E-01  0.94206E+02    0.40000E-01 -0.19078E-01 -0.20922E-01  0.00000E+00  0.00000E+00  0.00000E+00    0.94204E+02  0.00000E+00  0.00000E+00 -0.18604E+00  0.16535E+00  0.24095E+00
  0.40999E-01  0.94623E+02    0.41000E-01 -0.19554E-01 -0.21446E-01  0.00000E+00  0.00000E+00  0.00000E+00    0.94621E+02  0.00000E+00  0.00000E+00 -0.18565E+00  0.16707E+00  0.24152E+00
  0.41999E-01  0.95038E+02    0.42000E-01 -0.20030E-01 -0.21970E-01  0.00000E+00  0.00000E+00  0.00000E+00    0.95036E+02  0.00000E+00  0.00000E+00 -0.18523E+00  0.16882E+00  0.24209E+00
  0.42999E-01  0.95419E+02    0.43000E-01 -0.20507E-01 -0.22493E-01  0.00000E+00  0.00000E+00  0.00000E+00    0.95418E+02  0.00000E+00  0.00000E+00 -0.18749E+00  0.16918E+00  0.24265E+00
  0.43999E-01  0.95856E+02    0.44000E-01 -0.20983E-01 -0.23017E-01  0.00000E+00  0.00000E+00  0.00000E+00    0.95854E+02  0.00000E+00  0.00000E+00 -0.18450E+00  0.17221E+00  0.24318E+00
  0.44999E-01  0.96237E+02    0.45000E-01 -0.21459E-01 -0.23541E-01  0.00000E+00  0.00000E+00  0.00000E+00    0.96235E+02  0.00000E+00  0.00000E+00 -0.18654E+00  0.17269E+00  0.24378E+00
  0.45999E-01  0.96644E+02    0.46000E-01 -0.21935E-01 -0.24065E-01  0.00000E+00  0.00000E+00  0.00000E+00    0.96642E+02  0.00000E+00  0.00000E+00 -0.18609E+00  0.17440E+00  0.24433E+00
  0.46999E-01  0.97047E+02    0.47000E-01 -0.22412E-01 -0.24588E-01  0.00000E+00  0.00000E+00  0.00000E+00    0.97045E+02  0.00000E+00  0.00000E+00 -0.18555E+00  0.17620E+00  0.24489E+00
  0.47999E-01  0.97448E+02    0.48000E-01 -0.22888E-01 -0.25112E-01  0.00000E+00  0.00000E+00  0.00000E+00    0.97446E+02  0.00000E+00  0.00000E+00 -0.18498E+00  0.17801E+00  0.24544E+00
  0.48999E-01  0.97847E+02    0.49000E-01 -0.23364E-01 -0.25636E-01  0.00000E+00  0.00000E+00  0.00000E+00    0.97845E+02  0.00000E+00  0.00000E+00 -0.18438E+00  0.17983E+00  0.24599E+00
  0.49999E-01  0.98243E+02    0.50000E-01 -0.23840E-01 -0.26160E-01  0.00000E+00  0.00000E+00  0.00000E+00    0.98241E+02  0.00000E+00  0.00000E+00 -0.18376E+00  0.18167E+00  0.24653E+00
  0.50999E-01  0.98637E+02    0.51000E-01 -0.24316E-01 -0.26684E-01  0.00000E+00  0.00000E+00  0.00000E+00    0.98635E+02  0.00000E+00  0.00000E+00 -0.18312E+00  0.18352E+00  0.24708E+00
  0.51999E-01  0.99029E+02    0.52000E-01 -0.24792E-01 -0.27208E-01  0.00000E+00  0.00000E+00  0.00000E+00    0.99027E+02  0.00000E+00  0.00000E+00 -0.18245E+00  0.18538E+00  0.24762E+00
  0.52999E-01  0.99434E+02    0.53000E-01 -0.25268E-01 -0.27732E-01  0.00000E+00  0.00000E+00  0.00000E+00    0.99432E+02  0.00000E+00  0.00000E+00 -0.17919E+00  0.18867E+00  0.24805E+00
  0.53999E-01  0.99804E+02    0.54000E-01 -0.25744E-01 -0.28256E-01  0.00000E+00  0.00000E+00  0.00000E+00    0.99802E+02  0.00000E+00  0.00000E+00 -0.18100E+00  0.18922E+00  0.24870E+00
  0.54999E-01  0.10021E+03    0.55000E-01 -0.26220E-01 -0.28780E-01  0.00000E+00  0.00000E+00  0.00000E+00    0.10021E+03  0.00000E+00  0.00000E+00 -0.17775E+00  0.19250E+00  0.24912E+00
  0.55999E-01  0.10057E+03    0.56000E-01 -0.26696E-01 -0.29304E-01  0.00000E+00  0.00000E+00  0.00000E+00    0.10057E+03  0.00000E+00  0.00000E+00 -0.17950E+00  0.19305E+00  0.24977E+00
  0.56999E-01  0.10097E+03    0.57000E-01 -0.27172E-01 -0.29828E-01  0.00000E+00  0.00000E+00  0.00000E+00    0.10097E+03  0.00000E+00  0.00000E+00 -0.17620E+00  0.19639E+00  0.25018E+00
  0.57999E-01  0.10133E+03    0.58000E-01 -0.27648E-01 -0.30352E-01  0.00000E+00  0.00000E+00  0.00000E+00    0.10133E+03  0.00000E+00  0.00000E+00 -0.17790E+00  0.19694E+00  0.25084E+00
  0.58999E-01  0.10170E+03    0.59000E-01 -0.28124E-01 -0.30876E-01  0.00000E+00  0.00000E+00  0.00000E+00    0.10170E+03  0.00000E+00  0.00000E+00 -0.17743E+00  0.19869E+00  0.25135E+00
  0.59999E-01  0.10209E+03    0.60000E-01 -0.28600E-01 -0.31400E-01  0.00000E+00  0.00000E+00  0.00000E+00    0.10208E+03  0.00000E+00  0.00000E+00 -0.17628E+00  0.20079E+00  0.25189E+00
  0.60999E-01  0.10245E+03    0.61000E-01 -0.29075E-01 -0.31925E-01  0.00000E+00  0.00000E+00  0.00000E+00    0.10245E+03  0.00000E+00  0.00000E+00 -0.17570E+00  0.20264E+00  0.25241E+00
  0.61999E-01  0.10283E+03    0.62000E-01 -0.29551E-01 -0.32449E-01  0.00000E+00  0.00000E+00  0.00000E+00    0.10283E+03  0.00000E+00  0.00000E+00 -0.17451E+00  0.20478E+00  0.25295E+00
  0.62999E-01  0.10319E+03    0.63000E-01 -0.30027E-01 -0.32973E-01  0.00000E+00  0.00000E+00  0.00000E+00    0.10319E+03  0.00000E+00  0.00000E+00 -0.17389E+00  0.20665E+00  0.25347E+00
  0.63999E-01  0.10357E+03    0.64000E-01 -0.30503E-01 -0.33497E-01  0.00000E+00  0.00000E+00  0.00000E+00    0.10356E+03  0.00000E+00  0.00000E+00 -0.17266E+00  0.20882E+00  0.25401E+00
  0.64999E-01  0.10392E+03    0.65000E-01 -0.30978E-01 -0.34022E-01  0.00000E+00  0.00000E+00  0.00000E+00    0.10392E+03  0.00000E+00  0.00000E+00 -0.17200E+00  0.21071E+00  0.25453E+00
  0.65999E-01  0.10429E+03    0.66000E-01 -0.31454E-01 -0.34546E-01  0.00000E+00  0.00000E+00  0.00000E+00    0.10429E+03  0.00000E+00  0.00000E+00 -0.17072E+00  0.21291E+00  0.25507E+00
  0.66999E-01  0.10464E+03    0.67000E-01 -0.31930E-01 -0.35070E-01  0.00000E+00  0.00000E+00  0.00000E+00    0.10464E+03  0.00000E+00  0.00000E+00 -0.17002E+00  0.21483E+00  0.25559E+00
  0.67999E-01  0.10500E+03    0.68000E-01 -0.32405E-01 -0.35595E-01  0.00000E+00  0.00000E+00  0.00000E+00    0.10500E+03  0.00000E+00  0.00000E+00 -0.16906E+00  0.21688E+00  0.25613E+00
  0.68999E-01  0.10537E+03    0.69000E-01 -0.32881E-01 -0.36119E-01  0.00000E+00  0.00000E+00  0.00000E+00    0.10537E+03  0.00000E+00  0.00000E+00 -0.16766E+00  0.21914E+00  0.25666E+00
  0.69999E-01  0.10571E+03    0.70000E-01 -0.33357E-01 -0.36643E-01  0.00000E+00  0.00000E+00  0.00000E+00    0.10571E+03  0.00000E+00  0.00000E+00 -0.16689E+00  0.22110E+00  0.25719E+00
  0.70999E-01  0.10606E+03    0.71000E-01 -0.33832E-01 -0.37168E-01  0.00000E+00  0.00000E+00  0.00000E+00    0.10606E+03  0.00000E+00  0.00000E+00 -0.16587E+00  0.22319E+00  0.25773E+00
  0.71999E-01  0.10642E+03    0.72000E-01 -0.34308E-01 -0.37692E-01  0.00000E+00  0.00000E+00  0.00000E+00    0.10641E+03  0.00000E+00  0.00000E+00 -0.16478E+00  0.22532E+00  0.25827E+00
  0.72998E-01  0.10676E+03    0.73000E-01 -0.34783E-01 -0.38217E-01  0.00000E+00  0.00000E+00  0.00000E+00    0.10676E+03  0.00000E+00  0.00000E+00 -0.16366E+00  0.22746E+00  0.25881E+00
  0.73998E-01  0.10711E+03    0.74000E-01 -0.35259E-01 -0.38741E-01  0.00000E+00  0.00000E+00  0.00000E+00    0.10711E+03  0.00000E+00  0.00000E+00 -0.16253E+00  0.22961E+00  0.25936E+00
  0.74998E-01  0.10746E+03    0.75000E-01 -0.35734E-01 -0.39266E-01  0.00000E+00  0.00000E+00  0.00000E+00    0.10746E+03  0.00000E+00  0.00000E+00 -0.16137E+00  0.23178E+00  0.25990E+00
  0.75998E-01  0.10780E+03    0.76000E-01 -0.36209E-01 -0.39791E-01  0.00000E+00  0.00000E+00  0.00000E+00    0.10780E+03  0.00000E+00  0.00000E+00 -0.16020E+00  0.23396E+00  0.26045E+00
  0.76998E-01  0.10814E+03    0.77000E-01 -0.36685E-01 -0.40315E-01  0.00000E+00  0.00000E+00  0.00000E+00    0.10814E+03  0.00000E+00  0.00000E+00 -0.15900E+00  0.23615E+00  0.26100E+00
  0.77998E-01  0.10848E+03    0.78000E-01 -0.37160E-01 -0.40840E-01  0.00000E+00  0.00000E+00  0.00000E+00    0.10848E+03  0.00000E+00  0.00000E+00 -0.15779E+00  0.23836E+00  0.26156E+00
  0.78998E-01  0.10882E+03    0.79000E-01 -0.37636E-01 -0.41364E-01  0.00000E+00  0.00000E+00  0.00000E+00    0.10882E+03  0.00000E+00  0.00000E+00 -0.15656E+00  0.24058E+00  0.26213E+00
  0.79998E-01  0.10916E+03    0.80000E-01 -0.38111E-01 -0.41889E-01  0.00000E+00  0.00000E+00  0.00000E+00    0.10916E+03  0.00000E+00  0.00000E+00 -0.15532E+00  0.24281E+00  0.26269E+00
  0.80998E-01  0.10949E+03    0.81000E-01 -0.38586E-01 -0.42414E-01  0.00000E+00  0.00000E+00  0.00000E+00    0.10949E+03  0.00000E+00  0.00000E+00 -0.15405E+00  0.24506E+00  0.26327E+00
  0.81998E-01  0.10983E+03    0.82000E-01 -0.39061E-01 -0.42939E-01  0.00000E+00  0.00000E+00  0.00000E+00    0.10982E+03  0.00000E+00  0.00000E+00 -0.15277E+00  0.24732E+00  0.26384E+00
  0.82998E-01  0.11016E+03    0.83000E-01 -0.39537E-01 -0.43463E-01  0.00000E+00  0.00000E+00  0.00000E+00    0.11016E+03  0.00000E+00  0.00000E+00 -0.14542E+00  0.25243E+00  0.26446E+00
  0.83998E-01  0.11047E+03    0.84000E-01 -0.40012E-01 -0.43988E-01  0.00000E+00  0.00000E+00  0.00000E+00    0.11046E+03  0.00000E+00  0.00000E+00 -0.14568E+00  0.25437E+00  0.26513E+00
  0.84998E-01  0.11079E+03    0.85000E-01 -0.40487E-01 -0.44513E-01  0.00000E+00  0.00000E+00  0.00000E+00    0.11079E+03  0.00000E+00  0.00000E+00 -0.14411E+00  0.25676E+00  0.26575E+00
  0.85998E-01  0.11111E+03    0.86000E-01 -0.40962E-01 -0.45038E-01  0.00000E+00  0.00000E+00  0.00000E+00    0.11111E+03  0.00000E+00  0.00000E+00 -0.14275E+00  0.25910E+00  0.26636E+00
  0.86998E-01  0.11144E+03    0.87000E-01 -0.41437E-01 -0.45563E-01  0.00000E+00  0.00000E+00  0.00000E+00    0.11144E+03  0.00000E+00  0.00000E+00 -0.14139E+00  0.26145E+00  0.26697E+00
  0.87998E-01  0.11176E+03    0.88000E-01 -0.41912E-01 -0.46088E-01  0.00000E+00  0.00000E+00  0.00000E+00    0.11176E+03  0.00000E+00  0.00000E+00 -0.14001E+00  0.26382E+00  0.26759E+00
  0.88998E-01  0.11212E+03    0.89000E-01 -0.42387E-01 -0.46613E-01  0.00000E+00  0.00000E+00  0.00000E+00    0.11212E+03  0.00000E+00  0.00000E+00 -0.13723E+00  0.26678E+00  0.26814E+00
  0.89998E-01  0.11245E+03    0.90000E-01 -0.42862E-01 -0.47138E-01  0.00000E+00  0.00000E+00  0.00000E+00    0.11245E+03  0.00000E+00  0.00000E+00 -0.13617E+00  0.26910E+00  0.26875E+00
  0.90998E-01  0.11277E+03    0.91000E-01 -0.43337E-01 -0.47663E-01  0.00000E+00  0.00000E+00  0.00000E+00    0.11277E+03  0.00000E+00  0.00000E+00 -0.13474E+00  0.27151E+00  0.26939E+00
  0.91998E-01  0.11308E+03    0.92000E-01 -0.43812E-01 -0.48188E-01  0.00000E+00  0.00000E+00  0.00000E+00    0.11308E+03  0.00000E+00  0.00000E+00 -0.13329E+00  0.27395E+00  0.27004E+00
  0.92998E-01  0.11340E+03    0.93000E-01 -0.44287E-01 -0.48713E-01  0.00000E+00  0.00000E+00  0.00000E+00    0.11340E+03  0.00000E+00  0.00000E+00 -0.13183E+00  0.27639E+00  0.27070E+00
  0.93998E-01  0.11371E+03    0.94000E-01 -0.44762E-01 -0.49238E-01  0.00000E+00  0.00000E+00  0.00000E+00    0.11371E+03  0.00000E+00  0.00000E+00 -0.13036E+00  0.27885E+00  0.27137E+00
  0.94998E-01  0.11402E+03    0.95000E-01 -0.45237E-01 -0.49763E-01  0.00000E+00  0.00000E+00  0.00000E+00    0.11402E+03  0.00000E+00  0.00000E+00 -0.12887E+00  0.28133E+00  0.27205E+00
  0.95998E-01  0.11433E+03    0.96000E-01 -0.45712E-01 -0.50288E-01  0.00000E+00  0.00000E+00  0.00000E+00    0.11433E+03  0.00000E+00  0.00000E+00 -0.12737E+00  0.28383E+00  0.27274E+00
  0.96998E-01  0.11464E+03    0.97000E-01 -0.46187E-01 -0.50813E-01  0.00000E+00  0.00000E+00  0.00000E+00    0.11464E+03  0.00000E+00  0.00000E+00 -0.12585E+00  0.28634E+00  0.27344E+00
  0.97998E-01  0.11495E+03    0.98000E-01 -0.46662E-01 -0.51338E-01  0.00000E+00  0.00000E+00  0.00000E+00    0.11495E+03  0.00000E+00  0.00000E+00 -0.12432E+00  0.28886E+00  0.27415E+00
  0.98998E-01  0.11525E+03    0.99000E-01 -0.47137E-01 -0.51863E-01  0.00000E+00  0.00000E+00  0.00000E+00    0.11525E+03  0.00000E+00  0.00000E+00 -0.12278E+00  0.29140E+00  0.27488E+00
  0.99998E-01  0.11556E+03    0.10000E+00 -0.47611E-01 -0.52389E-01  0.00000E+00  0.00000E+00  0.00000E+00    0.11556E+03  0.00000E+00  0.00000E+00 -0.12122E+00  0.29396E+00  0.27561E+00
