          Evm          Svm            E11          E22          E33          E23          E13          E12         SCAU11       SCAU22       SCAU33       SCAU23       SCAU13       SCAU12      TEMP
  0.00000E+00  0.88066E+02    0.00000E+00  0.00000E+00  0.00000E+00  0.00000E+00  0.00000E+00  0.00000E+00    0.88064E+02  0.00000E+00  0.00000E+00 -0.20425E+00  0.12663E+00  0.24334E+00
  0.99998E-03  0.88516E+02    0.10000E-02 -0.47967E-03 -0.52033E-03  0.00000E+00  0.00000E+00  0.00000E+00    0.88514E+02  0.00000E+00  0.00000E+00 -0.20783E+00  0.13087E+00  0.24572E+00
  0.20000E-02  0.89039E+02    0.20000E-02 -0.95794E-03 -0.10421E-02  0.00000E+00  0.00000E+00  0.00000E+00    0.89037E+02  0.00000E+00  0.00000E+00 -0.20852E+00  0.13058E+00  0.24830E+00
  0.29999E-02  0.89555E+02    0.30000E-02 -0.14358E-02 -0.15642E-02  0.00000E+00  0.00000E+00  0.00000E+00    0.89553E+02  0.00000E+00  0.00000E+00 -0.20763E+00  0.13240E+00  0.24944E+00
  0.39999E-02  0.90083E+02    0.40000E-02 -0.19134E-02 -0.20866E-02  0.00000E+00  0.00000E+00  0.00000E+00    0.90081E+02  0.00000E+00  0.00000E+00 -0.20841E+00  0.13360E+00  0.25060E+00
  0.49999E-02  0.90602E+02    0.50000E-02 -0.23909E-02 -0.26091E-02  0.00000E+00  0.00000E+00  0.00000E+00    0.90600E+02  0.00000E+00  0.00000E+00 -0.20912E+00  0.13474E+00  0.25156E+00
  0.59999E-02  0.91117E+02    0.60000E-02 -0.28683E-02 -0.31317E-02  0.00000E+00  0.00000E+00  0.00000E+00    0.91115E+02  0.00000E+00  0.00000E+00 -0.20978E+00  0.13589E+00  0.25245E+00
  0.69998E-02  0.91629E+02    0.70000E-02 -0.33455E-02 -0.36545E-02  0.00000E+00  0.00000E+00  0.00000E+00    0.91626E+02  0.00000E+00  0.00000E+00 -0.21040E+00  0.13708E+00  0.25329E+00
  0.79998E-02  0.92137E+02    0.80000E-02 -0.38227E-02 -0.41773E-02  0.00000E+00  0.00000E+00  0.00000E+00    0.92135E+02  0.00000E+00  0.00000E+00 -0.21098E+00  0.13829E+00  0.25411E+00
  0.89998E-02  0.92642E+02    0.90000E-02 -0.42999E-02 -0.47001E-02  0.00000E+00  0.00000E+00  0.00000E+00    0.92640E+02  0.00000E+00  0.00000E+00 -0.21152E+00  0.13952E+00  0.25489E+00
  0.99998E-02  0.93145E+02    0.10000E-01 -0.47770E-02 -0.52230E-02  0.00000E+00  0.00000E+00  0.00000E+00    0.93143E+02  0.00000E+00  0.00000E+00 -0.21203E+00  0.14077E+00  0.25566E+00
  0.11000E-01  0.93644E+02    0.11000E-01 -0.52541E-02 -0.57459E-02  0.00000E+00  0.00000E+00  0.00000E+00    0.93642E+02  0.00000E+00  0.00000E+00 -0.21249E+00  0.14205E+00  0.25640E+00
  0.12000E-01  0.94140E+02    0.12000E-01 -0.57311E-02 -0.62689E-02  0.00000E+00  0.00000E+00  0.00000E+00    0.94138E+02  0.00000E+00  0.00000E+00 -0.21291E+00  0.14335E+00  0.25713E+00
  0.13000E-01  0.94633E+02    0.13000E-01 -0.62081E-02 -0.67919E-02  0.00000E+00  0.00000E+00  0.00000E+00    0.94631E+02  0.00000E+00  0.00000E+00 -0.21330E+00  0.14467E+00  0.25785E+00
  0.14000E-01  0.95124E+02    0.14000E-01 -0.66851E-02 -0.73149E-02  0.00000E+00  0.00000E+00  0.00000E+00    0.95122E+02  0.00000E+00  0.00000E+00 -0.21365E+00  0.14601E+00  0.25855E+00
  0.15000E-01  0.95611E+02    0.15000E-01 -0.71621E-02 -0.78379E-02  0.00000E+00  0.00000E+00  0.00000E+00    0.95609E+02  0.00000E+00  0.00000E+00 -0.21396E+00  0.14738E+00  0.25924E+00
  0.16000E-01  0.96095E+02    0.16000E-01 -0.76390E-02 -0.83610E-02  0.00000E+00  0.00000E+00  0.00000E+00    0.96093E+02  0.00000E+00  0.00000E+00 -0.21423E+00  0.14876E+00  0.25992E+00
  0.17000E-01  0.96576E+02    0.17000E-01 -0.81159E-02 -0.88841E-02  0.00000E+00  0.00000E+00  0.00000E+00    0.96574E+02  0.00000E+00  0.00000E+00 -0.21447E+00  0.15017E+00  0.26059E+00
  0.18000E-01  0.97055E+02    0.18000E-01 -0.85928E-02 -0.94072E-02  0.00000E+00  0.00000E+00  0.00000E+00    0.97053E+02  0.00000E+00  0.00000E+00 -0.21466E+00  0.15159E+00  0.26125E+00
  0.19000E-01  0.97530E+02    0.19000E-01 -0.90696E-02 -0.99304E-02  0.00000E+00  0.00000E+00  0.00000E+00    0.97528E+02  0.00000E+00  0.00000E+00 -0.21483E+00  0.15303E+00  0.26190E+00
  0.20000E-01  0.98003E+02    0.20000E-01 -0.95465E-02 -0.10454E-01  0.00000E+00  0.00000E+00  0.00000E+00    0.98001E+02  0.00000E+00  0.00000E+00 -0.21495E+00  0.15450E+00  0.26254E+00
  0.21000E-01  0.98473E+02    0.21000E-01 -0.10023E-01 -0.10977E-01  0.00000E+00  0.00000E+00  0.00000E+00    0.98471E+02  0.00000E+00  0.00000E+00 -0.21504E+00  0.15599E+00  0.26317E+00
  0.22000E-01  0.98940E+02    0.22000E-01 -0.10500E-01 -0.11500E-01  0.00000E+00  0.00000E+00  0.00000E+00    0.98938E+02  0.00000E+00  0.00000E+00 -0.21509E+00  0.15749E+00  0.26379E+00
  0.22999E-01  0.99404E+02    0.23000E-01 -0.10977E-01 -0.12023E-01  0.00000E+00  0.00000E+00  0.00000E+00    0.99402E+02  0.00000E+00  0.00000E+00 -0.21511E+00  0.15902E+00  0.26440E+00
  0.23999E-01  0.99866E+02    0.24000E-01 -0.11454E-01 -0.12546E-01  0.00000E+00  0.00000E+00  0.00000E+00    0.99864E+02  0.00000E+00  0.00000E+00 -0.21510E+00  0.16057E+00  0.26501E+00
  0.24999E-01  0.10032E+03    0.25000E-01 -0.11930E-01 -0.13070E-01  0.00000E+00  0.00000E+00  0.00000E+00    0.10032E+03  0.00000E+00  0.00000E+00 -0.21505E+00  0.16213E+00  0.26561E+00
  0.25999E-01  0.10078E+03    0.26000E-01 -0.12407E-01 -0.13593E-01  0.00000E+00  0.00000E+00  0.00000E+00    0.10078E+03  0.00000E+00  0.00000E+00 -0.21496E+00  0.16371E+00  0.26620E+00
  0.26999E-01  0.10123E+03    0.27000E-01 -0.12884E-01 -0.14116E-01  0.00000E+00  0.00000E+00  0.00000E+00    0.10123E+03  0.00000E+00  0.00000E+00 -0.21485E+00  0.16532E+00  0.26679E+00
  0.27999E-01  0.10168E+03    0.28000E-01 -0.13360E-01 -0.14640E-01  0.00000E+00  0.00000E+00  0.00000E+00    0.10168E+03  0.00000E+00  0.00000E+00 -0.21470E+00  0.16694E+00  0.26737E+00
  0.28999E-01  0.10210E+03    0.29000E-01 -0.13837E-01 -0.15163E-01  0.00000E+00  0.00000E+00  0.00000E+00    0.10209E+03  0.00000E+00  0.00000E+00 -0.21718E+00  0.16736E+00  0.26790E+00
  0.29999E-01  0.10257E+03    0.30000E-01 -0.14314E-01 -0.15686E-01  0.00000E+00  0.00000E+00  0.00000E+00    0.10257E+03  0.00000E+00  0.00000E+00 -0.21446E+00  0.17014E+00  0.26847E+00
  0.30999E-01  0.10298E+03    0.31000E-01 -0.14790E-01 -0.16210E-01  0.00000E+00  0.00000E+00  0.00000E+00    0.10298E+03  0.00000E+00  0.00000E+00 -0.21674E+00  0.17066E+00  0.26903E+00
  0.31999E-01  0.10346E+03    0.32000E-01 -0.15267E-01 -0.16733E-01  0.00000E+00  0.00000E+00  0.00000E+00    0.10345E+03  0.00000E+00  0.00000E+00 -0.21394E+00  0.17351E+00  0.26958E+00
  0.32999E-01  0.10386E+03    0.33000E-01 -0.15743E-01 -0.17257E-01  0.00000E+00  0.00000E+00  0.00000E+00    0.10386E+03  0.00000E+00  0.00000E+00 -0.21616E+00  0.17404E+00  0.27014E+00
  0.33999E-01  0.10432E+03    0.34000E-01 -0.16220E-01 -0.17780E-01  0.00000E+00  0.00000E+00  0.00000E+00    0.10432E+03  0.00000E+00  0.00000E+00 -0.21332E+00  0.17687E+00  0.27067E+00
  0.34999E-01  0.10473E+03    0.35000E-01 -0.16696E-01 -0.18304E-01  0.00000E+00  0.00000E+00  0.00000E+00    0.10473E+03  0.00000E+00  0.00000E+00 -0.21548E+00  0.17749E+00  0.27123E+00
  0.35999E-01  0.10518E+03    0.36000E-01 -0.17173E-01 -0.18827E-01  0.00000E+00  0.00000E+00  0.00000E+00    0.10518E+03  0.00000E+00  0.00000E+00 -0.21255E+00  0.18039E+00  0.27174E+00
  0.36999E-01  0.10559E+03    0.37000E-01 -0.17649E-01 -0.19351E-01  0.00000E+00  0.00000E+00  0.00000E+00    0.10559E+03  0.00000E+00  0.00000E+00 -0.21465E+00  0.18101E+00  0.27230E+00
  0.37999E-01  0.10604E+03    0.38000E-01 -0.18126E-01 -0.19874E-01  0.00000E+00  0.00000E+00  0.00000E+00    0.10603E+03  0.00000E+00  0.00000E+00 -0.21166E+00  0.18398E+00  0.27279E+00
  0.38999E-01  0.10644E+03    0.39000E-01 -0.18602E-01 -0.20398E-01  0.00000E+00  0.00000E+00  0.00000E+00    0.10643E+03  0.00000E+00  0.00000E+00 -0.21371E+00  0.18461E+00  0.27336E+00
  0.39999E-01  0.10688E+03    0.40000E-01 -0.19078E-01 -0.20922E-01  0.00000E+00  0.00000E+00  0.00000E+00    0.10688E+03  0.00000E+00  0.00000E+00 -0.21066E+00  0.18763E+00  0.27382E+00
  0.40999E-01  0.10727E+03    0.41000E-01 -0.19555E-01 -0.21445E-01  0.00000E+00  0.00000E+00  0.00000E+00    0.10727E+03  0.00000E+00  0.00000E+00 -0.21265E+00  0.18827E+00  0.27440E+00
  0.41999E-01  0.10771E+03    0.42000E-01 -0.20031E-01 -0.21969E-01  0.00000E+00  0.00000E+00  0.00000E+00    0.10771E+03  0.00000E+00  0.00000E+00 -0.20954E+00  0.19136E+00  0.27484E+00
  0.42999E-01  0.10810E+03    0.43000E-01 -0.20507E-01 -0.22493E-01  0.00000E+00  0.00000E+00  0.00000E+00    0.10810E+03  0.00000E+00  0.00000E+00 -0.21148E+00  0.19199E+00  0.27543E+00
  0.43999E-01  0.10850E+03    0.44000E-01 -0.20983E-01 -0.23017E-01  0.00000E+00  0.00000E+00  0.00000E+00    0.10850E+03  0.00000E+00  0.00000E+00 -0.21120E+00  0.19370E+00  0.27591E+00
  0.44999E-01  0.10892E+03    0.45000E-01 -0.21460E-01 -0.23540E-01  0.00000E+00  0.00000E+00  0.00000E+00    0.10892E+03  0.00000E+00  0.00000E+00 -0.21028E+00  0.19570E+00  0.27644E+00
  0.45999E-01  0.10932E+03    0.46000E-01 -0.21936E-01 -0.24064E-01  0.00000E+00  0.00000E+00  0.00000E+00    0.10932E+03  0.00000E+00  0.00000E+00 -0.20988E+00  0.19751E+00  0.27691E+00
  0.46999E-01  0.10973E+03    0.47000E-01 -0.22412E-01 -0.24588E-01  0.00000E+00  0.00000E+00  0.00000E+00    0.10973E+03  0.00000E+00  0.00000E+00 -0.20889E+00  0.19956E+00  0.27743E+00
  0.47999E-01  0.11012E+03    0.48000E-01 -0.22888E-01 -0.25112E-01  0.00000E+00  0.00000E+00  0.00000E+00    0.11012E+03  0.00000E+00  0.00000E+00 -0.20844E+00  0.20139E+00  0.27791E+00
  0.48999E-01  0.11054E+03    0.49000E-01 -0.23364E-01 -0.25636E-01  0.00000E+00  0.00000E+00  0.00000E+00    0.11053E+03  0.00000E+00  0.00000E+00 -0.20739E+00  0.20348E+00  0.27842E+00
  0.49999E-01  0.11092E+03    0.50000E-01 -0.23840E-01 -0.26160E-01  0.00000E+00  0.00000E+00  0.00000E+00    0.11092E+03  0.00000E+00  0.00000E+00 -0.20690E+00  0.20533E+00  0.27889E+00
  0.50999E-01  0.11133E+03    0.51000E-01 -0.24317E-01 -0.26683E-01  0.00000E+00  0.00000E+00  0.00000E+00    0.11132E+03  0.00000E+00  0.00000E+00 -0.20580E+00  0.20745E+00  0.27940E+00
  0.51999E-01  0.11171E+03    0.52000E-01 -0.24793E-01 -0.27207E-01  0.00000E+00  0.00000E+00  0.00000E+00    0.11171E+03  0.00000E+00  0.00000E+00 -0.20525E+00  0.20933E+00  0.27988E+00
  0.52999E-01  0.11210E+03    0.53000E-01 -0.25269E-01 -0.27731E-01  0.00000E+00  0.00000E+00  0.00000E+00    0.11209E+03  0.00000E+00  0.00000E+00 -0.20444E+00  0.21134E+00  0.28036E+00
  0.53999E-01  0.11249E+03    0.54000E-01 -0.25745E-01 -0.28255E-01  0.00000E+00  0.00000E+00  0.00000E+00    0.11248E+03  0.00000E+00  0.00000E+00 -0.20357E+00  0.21338E+00  0.28085E+00
  0.54999E-01  0.11287E+03    0.55000E-01 -0.26221E-01 -0.28779E-01  0.00000E+00  0.00000E+00  0.00000E+00    0.11287E+03  0.00000E+00  0.00000E+00 -0.20266E+00  0.21543E+00  0.28133E+00
  0.55999E-01  0.11326E+03    0.56000E-01 -0.26696E-01 -0.29304E-01  0.00000E+00  0.00000E+00  0.00000E+00    0.11325E+03  0.00000E+00  0.00000E+00 -0.20173E+00  0.21749E+00  0.28182E+00
  0.56999E-01  0.11364E+03    0.57000E-01 -0.27172E-01 -0.29828E-01  0.00000E+00  0.00000E+00  0.00000E+00    0.11363E+03  0.00000E+00  0.00000E+00 -0.20077E+00  0.21958E+00  0.28231E+00
  0.57999E-01  0.11402E+03    0.58000E-01 -0.27648E-01 -0.30352E-01  0.00000E+00  0.00000E+00  0.00000E+00    0.11401E+03  0.00000E+00  0.00000E+00 -0.19979E+00  0.22167E+00  0.28279E+00
  0.58999E-01  0.11439E+03    0.59000E-01 -0.28124E-01 -0.30876E-01  0.00000E+00  0.00000E+00  0.00000E+00    0.11439E+03  0.00000E+00  0.00000E+00 -0.19879E+00  0.22378E+00  0.28327E+00
  0.59999E-01  0.11477E+03    0.60000E-01 -0.28600E-01 -0.31400E-01  0.00000E+00  0.00000E+00  0.00000E+00    0.11477E+03  0.00000E+00  0.00000E+00 -0.19777E+00  0.22591E+00  0.28376E+00
  0.60999E-01  0.11514E+03    0.61000E-01 -0.29076E-01 -0.31924E-01  0.00000E+00  0.00000E+00  0.00000E+00    0.11514E+03  0.00000E+00  0.00000E+00 -0.19672E+00  0.22805E+00  0.28424E+00
  0.61999E-01  0.11552E+03    0.62000E-01 -0.29552E-01 -0.32448E-01  0.00000E+00  0.00000E+00  0.00000E+00    0.11551E+03  0.00000E+00  0.00000E+00 -0.19565E+00  0.23020E+00  0.28473E+00
  0.62999E-01  0.11588E+03    0.63000E-01 -0.30027E-01 -0.32973E-01  0.00000E+00  0.00000E+00  0.00000E+00    0.11588E+03  0.00000E+00  0.00000E+00 -0.19455E+00  0.23236E+00  0.28521E+00
  0.63999E-01  0.11625E+03    0.64000E-01 -0.30503E-01 -0.33497E-01  0.00000E+00  0.00000E+00  0.00000E+00    0.11625E+03  0.00000E+00  0.00000E+00 -0.19344E+00  0.23454E+00  0.28570E+00
  0.64999E-01  0.11662E+03    0.65000E-01 -0.30979E-01 -0.34021E-01  0.00000E+00  0.00000E+00  0.00000E+00    0.11662E+03  0.00000E+00  0.00000E+00 -0.19230E+00  0.23673E+00  0.28619E+00
  0.65999E-01  0.11698E+03    0.66000E-01 -0.31454E-01 -0.34546E-01  0.00000E+00  0.00000E+00  0.00000E+00    0.11698E+03  0.00000E+00  0.00000E+00 -0.19114E+00  0.23894E+00  0.28668E+00
  0.66999E-01  0.11734E+03    0.67000E-01 -0.31930E-01 -0.35070E-01  0.00000E+00  0.00000E+00  0.00000E+00    0.11734E+03  0.00000E+00  0.00000E+00 -0.18997E+00  0.24116E+00  0.28717E+00
  0.67999E-01  0.11770E+03    0.68000E-01 -0.32406E-01 -0.35594E-01  0.00000E+00  0.00000E+00  0.00000E+00    0.11770E+03  0.00000E+00  0.00000E+00 -0.18877E+00  0.24340E+00  0.28766E+00
  0.68999E-01  0.11806E+03    0.69000E-01 -0.32881E-01 -0.36119E-01  0.00000E+00  0.00000E+00  0.00000E+00    0.11806E+03  0.00000E+00  0.00000E+00 -0.18754E+00  0.24564E+00  0.28816E+00
  0.69999E-01  0.11842E+03    0.70000E-01 -0.33357E-01 -0.36643E-01  0.00000E+00  0.00000E+00  0.00000E+00    0.11841E+03  0.00000E+00  0.00000E+00 -0.18630E+00  0.24790E+00  0.28866E+00
  0.70999E-01  0.11877E+03    0.71000E-01 -0.33832E-01 -0.37168E-01  0.00000E+00  0.00000E+00  0.00000E+00    0.11877E+03  0.00000E+00  0.00000E+00 -0.18504E+00  0.25018E+00  0.28916E+00
  0.71999E-01  0.11913E+03    0.72000E-01 -0.34308E-01 -0.37692E-01  0.00000E+00  0.00000E+00  0.00000E+00    0.11912E+03  0.00000E+00  0.00000E+00 -0.17766E+00  0.25512E+00  0.28971E+00
  0.72998E-01  0.11950E+03    0.73000E-01 -0.34783E-01 -0.38217E-01  0.00000E+00  0.00000E+00  0.00000E+00    0.11950E+03  0.00000E+00  0.00000E+00 -0.17663E+00  0.25763E+00  0.29022E+00
  0.73998E-01  0.11985E+03    0.74000E-01 -0.35259E-01 -0.38741E-01  0.00000E+00  0.00000E+00  0.00000E+00    0.11985E+03  0.00000E+00  0.00000E+00 -0.17539E+00  0.25997E+00  0.29072E+00
  0.74998E-01  0.12020E+03    0.75000E-01 -0.35734E-01 -0.39266E-01  0.00000E+00  0.00000E+00  0.00000E+00    0.12019E+03  0.00000E+00  0.00000E+00 -0.17403E+00  0.26234E+00  0.29124E+00
  0.75998E-01  0.12054E+03    0.76000E-01 -0.36209E-01 -0.39791E-01  0.00000E+00  0.00000E+00  0.00000E+00    0.12054E+03  0.00000E+00  0.00000E+00 -0.17267E+00  0.26471E+00  0.29176E+00
  0.76998E-01  0.12088E+03    0.77000E-01 -0.36685E-01 -0.40315E-01  0.00000E+00  0.00000E+00  0.00000E+00    0.12088E+03  0.00000E+00  0.00000E+00 -0.17129E+00  0.26710E+00  0.29229E+00
  0.77998E-01  0.12122E+03    0.78000E-01 -0.37160E-01 -0.40840E-01  0.00000E+00  0.00000E+00  0.00000E+00    0.12122E+03  0.00000E+00  0.00000E+00 -0.16989E+00  0.26950E+00  0.29282E+00
  0.78998E-01  0.12156E+03    0.79000E-01 -0.37635E-01 -0.41365E-01  0.00000E+00  0.00000E+00  0.00000E+00    0.12156E+03  0.00000E+00  0.00000E+00 -0.16848E+00  0.27192E+00  0.29335E+00
  0.79998E-01  0.12190E+03    0.80000E-01 -0.38111E-01 -0.41889E-01  0.00000E+00  0.00000E+00  0.00000E+00    0.12190E+03  0.00000E+00  0.00000E+00 -0.16704E+00  0.27435E+00  0.29389E+00
  0.80998E-01  0.12223E+03    0.81000E-01 -0.38586E-01 -0.42414E-01  0.00000E+00  0.00000E+00  0.00000E+00    0.12223E+03  0.00000E+00  0.00000E+00 -0.16559E+00  0.27679E+00  0.29444E+00
  0.81998E-01  0.12257E+03    0.82000E-01 -0.39061E-01 -0.42939E-01  0.00000E+00  0.00000E+00  0.00000E+00    0.12257E+03  0.00000E+00  0.00000E+00 -0.16412E+00  0.27925E+00  0.29500E+00
  0.82998E-01  0.12290E+03    0.83000E-01 -0.39536E-01 -0.43464E-01  0.00000E+00  0.00000E+00  0.00000E+00    0.12290E+03  0.00000E+00  0.00000E+00 -0.16263E+00  0.28173E+00  0.29556E+00
  0.83998E-01  0.12323E+03    0.84000E-01 -0.40012E-01 -0.43988E-01  0.00000E+00  0.00000E+00  0.00000E+00    0.12323E+03  0.00000E+00  0.00000E+00 -0.16112E+00  0.28422E+00  0.29612E+00
  0.84998E-01  0.12356E+03    0.85000E-01 -0.40487E-01 -0.44513E-01  0.00000E+00  0.00000E+00  0.00000E+00    0.12356E+03  0.00000E+00  0.00000E+00 -0.15960E+00  0.28672E+00  0.29670E+00
  0.85998E-01  0.12389E+03    0.86000E-01 -0.40962E-01 -0.45038E-01  0.00000E+00  0.00000E+00  0.00000E+00    0.12388E+03  0.00000E+00  0.00000E+00 -0.15806E+00  0.28924E+00  0.29728E+00
  0.86998E-01  0.12421E+03    0.87000E-01 -0.41437E-01 -0.45563E-01  0.00000E+00  0.00000E+00  0.00000E+00    0.12421E+03  0.00000E+00  0.00000E+00 -0.15651E+00  0.29178E+00  0.29788E+00
  0.87998E-01  0.12453E+03    0.88000E-01 -0.41912E-01 -0.46088E-01  0.00000E+00  0.00000E+00  0.00000E+00    0.12453E+03  0.00000E+00  0.00000E+00 -0.15493E+00  0.29433E+00  0.29848E+00
  0.88998E-01  0.12486E+03    0.89000E-01 -0.42387E-01 -0.46613E-01  0.00000E+00  0.00000E+00  0.00000E+00    0.12485E+03  0.00000E+00  0.00000E+00 -0.15335E+00  0.29689E+00  0.29909E+00
  0.89998E-01  0.12518E+03    0.90000E-01 -0.42862E-01 -0.47138E-01  0.00000E+00  0.00000E+00  0.00000E+00    0.12517E+03  0.00000E+00  0.00000E+00 -0.15174E+00  0.29948E+00  0.29971E+00
  0.90998E-01  0.12550E+03    0.91000E-01 -0.43337E-01 -0.47663E-01  0.00000E+00  0.00000E+00  0.00000E+00    0.12549E+03  0.00000E+00  0.00000E+00 -0.15012E+00  0.30207E+00  0.30033E+00
  0.91998E-01  0.12581E+03    0.92000E-01 -0.43812E-01 -0.48188E-01  0.00000E+00  0.00000E+00  0.00000E+00    0.12581E+03  0.00000E+00  0.00000E+00 -0.14849E+00  0.30469E+00  0.30097E+00
  0.92998E-01  0.12613E+03    0.93000E-01 -0.44287E-01 -0.48713E-01  0.00000E+00  0.00000E+00  0.00000E+00    0.12613E+03  0.00000E+00  0.00000E+00 -0.14684E+00  0.30732E+00  0.30162E+00
  0.93998E-01  0.12644E+03    0.94000E-01 -0.44762E-01 -0.49238E-01  0.00000E+00  0.00000E+00  0.00000E+00    0.12644E+03  0.00000E+00  0.00000E+00 -0.14517E+00  0.30997E+00  0.30229E+00
  0.94998E-01  0.12675E+03    0.95000E-01 -0.45237E-01 -0.49763E-01  0.00000E+00  0.00000E+00  0.00000E+00    0.12675E+03  0.00000E+00  0.00000E+00 -0.14349E+00  0.31264E+00  0.30296E+00
  0.95998E-01  0.12707E+03    0.96000E-01 -0.45711E-01 -0.50289E-01  0.00000E+00  0.00000E+00  0.00000E+00    0.12706E+03  0.00000E+00  0.00000E+00 -0.14180E+00  0.31532E+00  0.30364E+00
  0.96998E-01  0.12737E+03    0.97000E-01 -0.46186E-01 -0.50814E-01  0.00000E+00  0.00000E+00  0.00000E+00    0.12737E+03  0.00000E+00  0.00000E+00 -0.14009E+00  0.31802E+00  0.30434E+00
  0.97998E-01  0.12768E+03    0.98000E-01 -0.46661E-01 -0.51339E-01  0.00000E+00  0.00000E+00  0.00000E+00    0.12768E+03  0.00000E+00  0.00000E+00 -0.13837E+00  0.32073E+00  0.30505E+00
  0.98998E-01  0.12799E+03    0.99000E-01 -0.47136E-01 -0.51864E-01  0.00000E+00  0.00000E+00  0.00000E+00    0.12799E+03  0.00000E+00  0.00000E+00 -0.13664E+00  0.32347E+00  0.30577E+00
  0.99998E-01  0.12829E+03    0.10000E+00 -0.47611E-01 -0.52389E-01  0.00000E+00  0.00000E+00  0.00000E+00    0.12829E+03  0.00000E+00  0.00000E+00 -0.13489E+00  0.32622E+00  0.30650E+00
