          Evm          Svm            E11          E22          E33          E23          E13          E12         SCAU11       SCAU22       SCAU33       SCAU23       SCAU13       SCAU12      TEMP
  0.00000E+00  0.11528E+03    0.00000E+00  0.00000E+00  0.00000E+00  0.00000E+00  0.00000E+00  0.00000E+00    0.11528E+03  0.00000E+00  0.00000E+00 -0.26737E+00  0.16576E+00  0.31853E+00
  0.99998E-03  0.11577E+03    0.10000E-02 -0.47967E-03 -0.52033E-03  0.00000E+00  0.00000E+00  0.00000E+00    0.11577E+03  0.00000E+00  0.00000E+00 -0.27354E+00  0.16922E+00  0.32194E+00
  0.20000E-02  0.11623E+03    0.20000E-02 -0.95785E-03 -0.10421E-02  0.00000E+00  0.00000E+00  0.00000E+00    0.11623E+03  0.00000E+00  0.00000E+00 -0.26972E+00  0.17122E+00  0.32386E+00
  0.29999E-02  0.11672E+03    0.30000E-02 -0.14357E-02 -0.15643E-02  0.00000E+00  0.00000E+00  0.00000E+00    0.11671E+03  0.00000E+00  0.00000E+00 -0.27290E+00  0.17137E+00  0.32538E+00
  0.39999E-02  0.11728E+03    0.40000E-02 -0.19133E-02 -0.20867E-02  0.00000E+00  0.00000E+00  0.00000E+00    0.11728E+03  0.00000E+00  0.00000E+00 -0.27106E+00  0.17369E+00  0.32631E+00
  0.49999E-02  0.11776E+03    0.50000E-02 -0.23907E-02 -0.26093E-02  0.00000E+00  0.00000E+00  0.00000E+00    0.11776E+03  0.00000E+00  0.00000E+00 -0.27394E+00  0.17391E+00  0.32718E+00
  0.59999E-02  0.11832E+03    0.60000E-02 -0.28681E-02 -0.31319E-02  0.00000E+00  0.00000E+00  0.00000E+00    0.11832E+03  0.00000E+00  0.00000E+00 -0.27199E+00  0.17629E+00  0.32799E+00
  0.69998E-02  0.11879E+03    0.70000E-02 -0.33454E-02 -0.36546E-02  0.00000E+00  0.00000E+00  0.00000E+00    0.11879E+03  0.00000E+00  0.00000E+00 -0.27480E+00  0.17660E+00  0.32866E+00
  0.79998E-02  0.11934E+03    0.80000E-02 -0.38226E-02 -0.41774E-02  0.00000E+00  0.00000E+00  0.00000E+00    0.11934E+03  0.00000E+00  0.00000E+00 -0.27276E+00  0.17902E+00  0.32940E+00
  0.89998E-02  0.11981E+03    0.90000E-02 -0.42997E-02 -0.47003E-02  0.00000E+00  0.00000E+00  0.00000E+00    0.11981E+03  0.00000E+00  0.00000E+00 -0.27550E+00  0.17940E+00  0.32999E+00
  0.99998E-02  0.12035E+03    0.10000E-01 -0.47768E-02 -0.52232E-02  0.00000E+00  0.00000E+00  0.00000E+00    0.12035E+03  0.00000E+00  0.00000E+00 -0.27334E+00  0.18186E+00  0.33067E+00
  0.11000E-01  0.12081E+03    0.11000E-01 -0.52539E-02 -0.57461E-02  0.00000E+00  0.00000E+00  0.00000E+00    0.12081E+03  0.00000E+00  0.00000E+00 -0.27601E+00  0.18230E+00  0.33121E+00
  0.12000E-01  0.12135E+03    0.12000E-01 -0.57309E-02 -0.62691E-02  0.00000E+00  0.00000E+00  0.00000E+00    0.12134E+03  0.00000E+00  0.00000E+00 -0.27375E+00  0.18481E+00  0.33185E+00
  0.13000E-01  0.12181E+03    0.13000E-01 -0.62080E-02 -0.67920E-02  0.00000E+00  0.00000E+00  0.00000E+00    0.12180E+03  0.00000E+00  0.00000E+00 -0.27635E+00  0.18529E+00  0.33238E+00
  0.14000E-01  0.12233E+03    0.14000E-01 -0.66850E-02 -0.73150E-02  0.00000E+00  0.00000E+00  0.00000E+00    0.12233E+03  0.00000E+00  0.00000E+00 -0.27398E+00  0.18786E+00  0.33298E+00
  0.15000E-01  0.12279E+03    0.15000E-01 -0.71619E-02 -0.78381E-02  0.00000E+00  0.00000E+00  0.00000E+00    0.12278E+03  0.00000E+00  0.00000E+00 -0.27652E+00  0.18839E+00  0.33349E+00
  0.16000E-01  0.12331E+03    0.16000E-01 -0.76389E-02 -0.83611E-02  0.00000E+00  0.00000E+00  0.00000E+00    0.12330E+03  0.00000E+00  0.00000E+00 -0.27405E+00  0.19101E+00  0.33405E+00
  0.17000E-01  0.12375E+03    0.17000E-01 -0.81158E-02 -0.88842E-02  0.00000E+00  0.00000E+00  0.00000E+00    0.12375E+03  0.00000E+00  0.00000E+00 -0.27652E+00  0.19157E+00  0.33456E+00
  0.18000E-01  0.12422E+03    0.18000E-01 -0.85927E-02 -0.94073E-02  0.00000E+00  0.00000E+00  0.00000E+00    0.12422E+03  0.00000E+00  0.00000E+00 -0.27681E+00  0.19305E+00  0.33505E+00
  0.19000E-01  0.12474E+03    0.19000E-01 -0.90696E-02 -0.99304E-02  0.00000E+00  0.00000E+00  0.00000E+00    0.12474E+03  0.00000E+00  0.00000E+00 -0.27386E+00  0.19592E+00  0.33558E+00
  0.20000E-01  0.12519E+03    0.20000E-01 -0.95464E-02 -0.10454E-01  0.00000E+00  0.00000E+00  0.00000E+00    0.12518E+03  0.00000E+00  0.00000E+00 -0.27622E+00  0.19653E+00  0.33608E+00
  0.21000E-01  0.12564E+03    0.21000E-01 -0.10023E-01 -0.10977E-01  0.00000E+00  0.00000E+00  0.00000E+00    0.12564E+03  0.00000E+00  0.00000E+00 -0.27638E+00  0.19808E+00  0.33655E+00
  0.22000E-01  0.12611E+03    0.22000E-01 -0.10500E-01 -0.11500E-01  0.00000E+00  0.00000E+00  0.00000E+00    0.12611E+03  0.00000E+00  0.00000E+00 -0.27622E+00  0.19979E+00  0.33703E+00
  0.22999E-01  0.12658E+03    0.23000E-01 -0.10977E-01 -0.12023E-01  0.00000E+00  0.00000E+00  0.00000E+00    0.12657E+03  0.00000E+00  0.00000E+00 -0.27598E+00  0.20153E+00  0.33750E+00
  0.23999E-01  0.12704E+03    0.24000E-01 -0.11454E-01 -0.12546E-01  0.00000E+00  0.00000E+00  0.00000E+00    0.12704E+03  0.00000E+00  0.00000E+00 -0.27568E+00  0.20329E+00  0.33797E+00
  0.24999E-01  0.12750E+03    0.25000E-01 -0.11930E-01 -0.13070E-01  0.00000E+00  0.00000E+00  0.00000E+00    0.12750E+03  0.00000E+00  0.00000E+00 -0.27535E+00  0.20508E+00  0.33843E+00
  0.25999E-01  0.12796E+03    0.26000E-01 -0.12407E-01 -0.13593E-01  0.00000E+00  0.00000E+00  0.00000E+00    0.12795E+03  0.00000E+00  0.00000E+00 -0.27497E+00  0.20689E+00  0.33889E+00
  0.26999E-01  0.12841E+03    0.27000E-01 -0.12884E-01 -0.14116E-01  0.00000E+00  0.00000E+00  0.00000E+00    0.12841E+03  0.00000E+00  0.00000E+00 -0.27457E+00  0.20872E+00  0.33934E+00
  0.27999E-01  0.12886E+03    0.28000E-01 -0.13360E-01 -0.14640E-01  0.00000E+00  0.00000E+00  0.00000E+00    0.12886E+03  0.00000E+00  0.00000E+00 -0.27413E+00  0.21058E+00  0.33978E+00
  0.28999E-01  0.12931E+03    0.29000E-01 -0.13837E-01 -0.15163E-01  0.00000E+00  0.00000E+00  0.00000E+00    0.12931E+03  0.00000E+00  0.00000E+00 -0.27364E+00  0.21246E+00  0.34021E+00
  0.29999E-01  0.12976E+03    0.30000E-01 -0.14314E-01 -0.15686E-01  0.00000E+00  0.00000E+00  0.00000E+00    0.12976E+03  0.00000E+00  0.00000E+00 -0.27312E+00  0.21435E+00  0.34065E+00
  0.30999E-01  0.13021E+03    0.31000E-01 -0.14790E-01 -0.16210E-01  0.00000E+00  0.00000E+00  0.00000E+00    0.13020E+03  0.00000E+00  0.00000E+00 -0.27257E+00  0.21627E+00  0.34107E+00
  0.31999E-01  0.13065E+03    0.32000E-01 -0.15267E-01 -0.16733E-01  0.00000E+00  0.00000E+00  0.00000E+00    0.13064E+03  0.00000E+00  0.00000E+00 -0.27199E+00  0.21821E+00  0.34149E+00
  0.32999E-01  0.13109E+03    0.33000E-01 -0.15743E-01 -0.17257E-01  0.00000E+00  0.00000E+00  0.00000E+00    0.13108E+03  0.00000E+00  0.00000E+00 -0.27136E+00  0.22018E+00  0.34191E+00
  0.33999E-01  0.13152E+03    0.34000E-01 -0.16220E-01 -0.17780E-01  0.00000E+00  0.00000E+00  0.00000E+00    0.13152E+03  0.00000E+00  0.00000E+00 -0.27071E+00  0.22216E+00  0.34233E+00
  0.34999E-01  0.13196E+03    0.35000E-01 -0.16696E-01 -0.18304E-01  0.00000E+00  0.00000E+00  0.00000E+00    0.13196E+03  0.00000E+00  0.00000E+00 -0.27002E+00  0.22416E+00  0.34274E+00
  0.35999E-01  0.13239E+03    0.36000E-01 -0.17173E-01 -0.18827E-01  0.00000E+00  0.00000E+00  0.00000E+00    0.13239E+03  0.00000E+00  0.00000E+00 -0.26929E+00  0.22618E+00  0.34315E+00
  0.36999E-01  0.13282E+03    0.37000E-01 -0.17649E-01 -0.19351E-01  0.00000E+00  0.00000E+00  0.00000E+00    0.13282E+03  0.00000E+00  0.00000E+00 -0.26853E+00  0.22823E+00  0.34355E+00
  0.37999E-01  0.13325E+03    0.38000E-01 -0.18125E-01 -0.19875E-01  0.00000E+00  0.00000E+00  0.00000E+00    0.13324E+03  0.00000E+00  0.00000E+00 -0.26775E+00  0.23029E+00  0.34395E+00
  0.38999E-01  0.13367E+03    0.39000E-01 -0.18602E-01 -0.20398E-01  0.00000E+00  0.00000E+00  0.00000E+00    0.13367E+03  0.00000E+00  0.00000E+00 -0.26693E+00  0.23238E+00  0.34435E+00
  0.39999E-01  0.13409E+03    0.40000E-01 -0.19078E-01 -0.20922E-01  0.00000E+00  0.00000E+00  0.00000E+00    0.13409E+03  0.00000E+00  0.00000E+00 -0.26607E+00  0.23448E+00  0.34474E+00
  0.40999E-01  0.13451E+03    0.41000E-01 -0.19554E-01 -0.21446E-01  0.00000E+00  0.00000E+00  0.00000E+00    0.13451E+03  0.00000E+00  0.00000E+00 -0.26519E+00  0.23660E+00  0.34513E+00
  0.41999E-01  0.13493E+03    0.42000E-01 -0.20031E-01 -0.21969E-01  0.00000E+00  0.00000E+00  0.00000E+00    0.13493E+03  0.00000E+00  0.00000E+00 -0.26428E+00  0.23875E+00  0.34552E+00
  0.42999E-01  0.13534E+03    0.43000E-01 -0.20507E-01 -0.22493E-01  0.00000E+00  0.00000E+00  0.00000E+00    0.13534E+03  0.00000E+00  0.00000E+00 -0.26334E+00  0.24090E+00  0.34590E+00
  0.43999E-01  0.13576E+03    0.44000E-01 -0.20983E-01 -0.23017E-01  0.00000E+00  0.00000E+00  0.00000E+00    0.13575E+03  0.00000E+00  0.00000E+00 -0.26236E+00  0.24308E+00  0.34629E+00
  0.44999E-01  0.13617E+03    0.45000E-01 -0.21459E-01 -0.23541E-01  0.00000E+00  0.00000E+00  0.00000E+00    0.13616E+03  0.00000E+00  0.00000E+00 -0.26137E+00  0.24528E+00  0.34667E+00
  0.45999E-01  0.13657E+03    0.46000E-01 -0.21936E-01 -0.24064E-01  0.00000E+00  0.00000E+00  0.00000E+00    0.13657E+03  0.00000E+00  0.00000E+00 -0.26033E+00  0.24750E+00  0.34705E+00
  0.46999E-01  0.13698E+03    0.47000E-01 -0.22412E-01 -0.24588E-01  0.00000E+00  0.00000E+00  0.00000E+00    0.13698E+03  0.00000E+00  0.00000E+00 -0.25927E+00  0.24973E+00  0.34743E+00
  0.47999E-01  0.13734E+03    0.48000E-01 -0.22888E-01 -0.25112E-01  0.00000E+00  0.00000E+00  0.00000E+00    0.13734E+03  0.00000E+00  0.00000E+00 -0.25324E+00  0.25371E+00  0.34791E+00
  0.48999E-01  0.13776E+03    0.49000E-01 -0.23364E-01 -0.25636E-01  0.00000E+00  0.00000E+00  0.00000E+00    0.13776E+03  0.00000E+00  0.00000E+00 -0.25218E+00  0.25624E+00  0.34830E+00
  0.49999E-01  0.13816E+03    0.50000E-01 -0.23840E-01 -0.26160E-01  0.00000E+00  0.00000E+00  0.00000E+00    0.13816E+03  0.00000E+00  0.00000E+00 -0.25107E+00  0.25858E+00  0.34867E+00
  0.50999E-01  0.13856E+03    0.51000E-01 -0.24316E-01 -0.26684E-01  0.00000E+00  0.00000E+00  0.00000E+00    0.13856E+03  0.00000E+00  0.00000E+00 -0.24989E+00  0.26091E+00  0.34905E+00
  0.51999E-01  0.13895E+03    0.52000E-01 -0.24792E-01 -0.27208E-01  0.00000E+00  0.00000E+00  0.00000E+00    0.13895E+03  0.00000E+00  0.00000E+00 -0.24869E+00  0.26326E+00  0.34942E+00
  0.52999E-01  0.13935E+03    0.53000E-01 -0.25268E-01 -0.27732E-01  0.00000E+00  0.00000E+00  0.00000E+00    0.13934E+03  0.00000E+00  0.00000E+00 -0.24746E+00  0.26563E+00  0.34980E+00
  0.53999E-01  0.13979E+03    0.54000E-01 -0.25744E-01 -0.28256E-01  0.00000E+00  0.00000E+00  0.00000E+00    0.13979E+03  0.00000E+00  0.00000E+00 -0.24488E+00  0.26841E+00  0.35021E+00
  0.54999E-01  0.14019E+03    0.55000E-01 -0.26220E-01 -0.28780E-01  0.00000E+00  0.00000E+00  0.00000E+00    0.14018E+03  0.00000E+00  0.00000E+00 -0.24400E+00  0.27077E+00  0.35055E+00
  0.55999E-01  0.14057E+03    0.56000E-01 -0.26696E-01 -0.29304E-01  0.00000E+00  0.00000E+00  0.00000E+00    0.14057E+03  0.00000E+00  0.00000E+00 -0.24270E+00  0.27319E+00  0.35092E+00
  0.56999E-01  0.14095E+03    0.57000E-01 -0.27172E-01 -0.29828E-01  0.00000E+00  0.00000E+00  0.00000E+00    0.14095E+03  0.00000E+00  0.00000E+00 -0.24136E+00  0.27563E+00  0.35129E+00
  0.57999E-01  0.14134E+03    0.58000E-01 -0.27647E-01 -0.30353E-01  0.00000E+00  0.00000E+00  0.00000E+00    0.14133E+03  0.00000E+00  0.00000E+00 -0.24000E+00  0.27808E+00  0.35167E+00
  0.58999E-01  0.14171E+03    0.59000E-01 -0.28123E-01 -0.30877E-01  0.00000E+00  0.00000E+00  0.00000E+00    0.14171E+03  0.00000E+00  0.00000E+00 -0.23862E+00  0.28055E+00  0.35206E+00
  0.59999E-01  0.14209E+03    0.60000E-01 -0.28599E-01 -0.31401E-01  0.00000E+00  0.00000E+00  0.00000E+00    0.14209E+03  0.00000E+00  0.00000E+00 -0.23722E+00  0.28303E+00  0.35244E+00
  0.60999E-01  0.14247E+03    0.61000E-01 -0.29075E-01 -0.31925E-01  0.00000E+00  0.00000E+00  0.00000E+00    0.14246E+03  0.00000E+00  0.00000E+00 -0.23579E+00  0.28553E+00  0.35282E+00
  0.61999E-01  0.14284E+03    0.62000E-01 -0.29550E-01 -0.32450E-01  0.00000E+00  0.00000E+00  0.00000E+00    0.14284E+03  0.00000E+00  0.00000E+00 -0.23433E+00  0.28804E+00  0.35321E+00
  0.62999E-01  0.14321E+03    0.63000E-01 -0.30026E-01 -0.32974E-01  0.00000E+00  0.00000E+00  0.00000E+00    0.14321E+03  0.00000E+00  0.00000E+00 -0.23286E+00  0.29058E+00  0.35360E+00
  0.63999E-01  0.14358E+03    0.64000E-01 -0.30502E-01 -0.33498E-01  0.00000E+00  0.00000E+00  0.00000E+00    0.14358E+03  0.00000E+00  0.00000E+00 -0.23136E+00  0.29312E+00  0.35400E+00
  0.64999E-01  0.14395E+03    0.65000E-01 -0.30977E-01 -0.34023E-01  0.00000E+00  0.00000E+00  0.00000E+00    0.14394E+03  0.00000E+00  0.00000E+00 -0.22984E+00  0.29568E+00  0.35439E+00
  0.65999E-01  0.14431E+03    0.66000E-01 -0.31453E-01 -0.34547E-01  0.00000E+00  0.00000E+00  0.00000E+00    0.14431E+03  0.00000E+00  0.00000E+00 -0.22829E+00  0.29826E+00  0.35480E+00
  0.66999E-01  0.14467E+03    0.67000E-01 -0.31929E-01 -0.35071E-01  0.00000E+00  0.00000E+00  0.00000E+00    0.14467E+03  0.00000E+00  0.00000E+00 -0.22672E+00  0.30085E+00  0.35520E+00
  0.67999E-01  0.14504E+03    0.68000E-01 -0.32404E-01 -0.35596E-01  0.00000E+00  0.00000E+00  0.00000E+00    0.14503E+03  0.00000E+00  0.00000E+00 -0.22514E+00  0.30346E+00  0.35561E+00
  0.68999E-01  0.14539E+03    0.69000E-01 -0.32880E-01 -0.36120E-01  0.00000E+00  0.00000E+00  0.00000E+00    0.14539E+03  0.00000E+00  0.00000E+00 -0.22352E+00  0.30608E+00  0.35602E+00
  0.69999E-01  0.14575E+03    0.70000E-01 -0.33355E-01 -0.36645E-01  0.00000E+00  0.00000E+00  0.00000E+00    0.14575E+03  0.00000E+00  0.00000E+00 -0.22189E+00  0.30872E+00  0.35644E+00
  0.70999E-01  0.14611E+03    0.71000E-01 -0.33831E-01 -0.37169E-01  0.00000E+00  0.00000E+00  0.00000E+00    0.14610E+03  0.00000E+00  0.00000E+00 -0.22024E+00  0.31138E+00  0.35686E+00
  0.71998E-01  0.14646E+03    0.72000E-01 -0.34306E-01 -0.37694E-01  0.00000E+00  0.00000E+00  0.00000E+00    0.14646E+03  0.00000E+00  0.00000E+00 -0.21856E+00  0.31405E+00  0.35729E+00
  0.72998E-01  0.14681E+03    0.73000E-01 -0.34782E-01 -0.38218E-01  0.00000E+00  0.00000E+00  0.00000E+00    0.14681E+03  0.00000E+00  0.00000E+00 -0.21687E+00  0.31673E+00  0.35773E+00
  0.73998E-01  0.14716E+03    0.74000E-01 -0.35257E-01 -0.38743E-01  0.00000E+00  0.00000E+00  0.00000E+00    0.14716E+03  0.00000E+00  0.00000E+00 -0.21515E+00  0.31943E+00  0.35817E+00
  0.74998E-01  0.14751E+03    0.75000E-01 -0.35732E-01 -0.39268E-01  0.00000E+00  0.00000E+00  0.00000E+00    0.14751E+03  0.00000E+00  0.00000E+00 -0.21341E+00  0.32215E+00  0.35862E+00
  0.75998E-01  0.14786E+03    0.76000E-01 -0.36208E-01 -0.39792E-01  0.00000E+00  0.00000E+00  0.00000E+00    0.14785E+03  0.00000E+00  0.00000E+00 -0.21165E+00  0.32488E+00  0.35907E+00
  0.76998E-01  0.14820E+03    0.77000E-01 -0.36683E-01 -0.40317E-01  0.00000E+00  0.00000E+00  0.00000E+00    0.14820E+03  0.00000E+00  0.00000E+00 -0.20988E+00  0.32763E+00  0.35953E+00
  0.77998E-01  0.14854E+03    0.78000E-01 -0.37158E-01 -0.40842E-01  0.00000E+00  0.00000E+00  0.00000E+00    0.14854E+03  0.00000E+00  0.00000E+00 -0.20808E+00  0.33040E+00  0.36000E+00
  0.78998E-01  0.14888E+03    0.79000E-01 -0.37633E-01 -0.41367E-01  0.00000E+00  0.00000E+00  0.00000E+00    0.14888E+03  0.00000E+00  0.00000E+00 -0.20626E+00  0.33318E+00  0.36048E+00
  0.79998E-01  0.14922E+03    0.80000E-01 -0.38109E-01 -0.41891E-01  0.00000E+00  0.00000E+00  0.00000E+00    0.14922E+03  0.00000E+00  0.00000E+00 -0.20443E+00  0.33598E+00  0.36097E+00
  0.80998E-01  0.14956E+03    0.81000E-01 -0.38584E-01 -0.42416E-01  0.00000E+00  0.00000E+00  0.00000E+00    0.14956E+03  0.00000E+00  0.00000E+00 -0.20258E+00  0.33879E+00  0.36146E+00
  0.81998E-01  0.14990E+03    0.82000E-01 -0.39059E-01 -0.42941E-01  0.00000E+00  0.00000E+00  0.00000E+00    0.14989E+03  0.00000E+00  0.00000E+00 -0.20070E+00  0.34162E+00  0.36196E+00
  0.82998E-01  0.15023E+03    0.83000E-01 -0.39534E-01 -0.43466E-01  0.00000E+00  0.00000E+00  0.00000E+00    0.15023E+03  0.00000E+00  0.00000E+00 -0.19881E+00  0.34447E+00  0.36248E+00
  0.83998E-01  0.15056E+03    0.84000E-01 -0.40009E-01 -0.43991E-01  0.00000E+00  0.00000E+00  0.00000E+00    0.15056E+03  0.00000E+00  0.00000E+00 -0.19690E+00  0.34734E+00  0.36300E+00
  0.84998E-01  0.15089E+03    0.85000E-01 -0.40484E-01 -0.44516E-01  0.00000E+00  0.00000E+00  0.00000E+00    0.15089E+03  0.00000E+00  0.00000E+00 -0.19498E+00  0.35022E+00  0.36353E+00
  0.85998E-01  0.15122E+03    0.86000E-01 -0.40960E-01 -0.45040E-01  0.00000E+00  0.00000E+00  0.00000E+00    0.15122E+03  0.00000E+00  0.00000E+00 -0.19303E+00  0.35312E+00  0.36408E+00
  0.86998E-01  0.15155E+03    0.87000E-01 -0.41435E-01 -0.45565E-01  0.00000E+00  0.00000E+00  0.00000E+00    0.15155E+03  0.00000E+00  0.00000E+00 -0.19107E+00  0.35604E+00  0.36463E+00
  0.87998E-01  0.15188E+03    0.88000E-01 -0.41910E-01 -0.46090E-01  0.00000E+00  0.00000E+00  0.00000E+00    0.15187E+03  0.00000E+00  0.00000E+00 -0.18909E+00  0.35898E+00  0.36520E+00
  0.88998E-01  0.15220E+03    0.89000E-01 -0.42385E-01 -0.46615E-01  0.00000E+00  0.00000E+00  0.00000E+00    0.15220E+03  0.00000E+00  0.00000E+00 -0.18710E+00  0.36193E+00  0.36578E+00
  0.89998E-01  0.15252E+03    0.90000E-01 -0.42860E-01 -0.47140E-01  0.00000E+00  0.00000E+00  0.00000E+00    0.15252E+03  0.00000E+00  0.00000E+00 -0.18509E+00  0.36491E+00  0.36637E+00
  0.90998E-01  0.15284E+03    0.91000E-01 -0.43335E-01 -0.47665E-01  0.00000E+00  0.00000E+00  0.00000E+00    0.15284E+03  0.00000E+00  0.00000E+00 -0.18306E+00  0.36790E+00  0.36697E+00
  0.91998E-01  0.15316E+03    0.92000E-01 -0.43810E-01 -0.48190E-01  0.00000E+00  0.00000E+00  0.00000E+00    0.15316E+03  0.00000E+00  0.00000E+00 -0.18102E+00  0.37091E+00  0.36759E+00
  0.92998E-01  0.15348E+03    0.93000E-01 -0.44284E-01 -0.48716E-01  0.00000E+00  0.00000E+00  0.00000E+00    0.15348E+03  0.00000E+00  0.00000E+00 -0.17896E+00  0.37394E+00  0.36822E+00
  0.93998E-01  0.15380E+03    0.94000E-01 -0.44759E-01 -0.49241E-01  0.00000E+00  0.00000E+00  0.00000E+00    0.15379E+03  0.00000E+00  0.00000E+00 -0.17688E+00  0.37699E+00  0.36886E+00
  0.94998E-01  0.15411E+03    0.95000E-01 -0.45234E-01 -0.49766E-01  0.00000E+00  0.00000E+00  0.00000E+00    0.15411E+03  0.00000E+00  0.00000E+00 -0.17479E+00  0.38006E+00  0.36952E+00
  0.95998E-01  0.15442E+03    0.96000E-01 -0.45709E-01 -0.50291E-01  0.00000E+00  0.00000E+00  0.00000E+00    0.15442E+03  0.00000E+00  0.00000E+00 -0.17269E+00  0.38315E+00  0.37019E+00
  0.96998E-01  0.15474E+03    0.97000E-01 -0.46184E-01 -0.50816E-01  0.00000E+00  0.00000E+00  0.00000E+00    0.15473E+03  0.00000E+00  0.00000E+00 -0.17057E+00  0.38626E+00  0.37088E+00
  0.97998E-01  0.15505E+03    0.98000E-01 -0.46659E-01 -0.51341E-01  0.00000E+00  0.00000E+00  0.00000E+00    0.15504E+03  0.00000E+00  0.00000E+00 -0.16844E+00  0.38938E+00  0.37158E+00
  0.98998E-01  0.15536E+03    0.99000E-01 -0.47133E-01 -0.51867E-01  0.00000E+00  0.00000E+00  0.00000E+00    0.15535E+03  0.00000E+00  0.00000E+00 -0.16629E+00  0.39253E+00  0.37230E+00
  0.99998E-01  0.15566E+03    0.10000E+00 -0.47608E-01 -0.52392E-01  0.00000E+00  0.00000E+00  0.00000E+00    0.15566E+03  0.00000E+00  0.00000E+00 -0.16413E+00  0.39570E+00  0.37304E+00
