          Evm          Svm            E11          E22          E33          E23          E13          E12         SCAU11       SCAU22       SCAU33       SCAU23       SCAU13       SCAU12      TEMP
  0.00000E+00  0.99339E+02    0.00000E+00  0.00000E+00  0.00000E+00  0.00000E+00  0.00000E+00  0.00000E+00    0.99336E+02  0.00000E+00  0.00000E+00 -0.23040E+00  0.14284E+00  0.27449E+00
  0.99998E-03  0.99787E+02    0.10000E-02 -0.47967E-03 -0.52033E-03  0.00000E+00  0.00000E+00  0.00000E+00    0.99785E+02  0.00000E+00  0.00000E+00 -0.23406E+00  0.14750E+00  0.27700E+00
  0.20000E-02  0.10030E+03    0.20000E-02 -0.95795E-03 -0.10421E-02  0.00000E+00  0.00000E+00  0.00000E+00    0.10030E+03  0.00000E+00  0.00000E+00 -0.23289E+00  0.14795E+00  0.27947E+00
  0.29999E-02  0.10083E+03    0.30000E-02 -0.14359E-02 -0.15641E-02  0.00000E+00  0.00000E+00  0.00000E+00    0.10083E+03  0.00000E+00  0.00000E+00 -0.23367E+00  0.14914E+00  0.28089E+00
  0.39999E-02  0.10136E+03    0.40000E-02 -0.19135E-02 -0.20865E-02  0.00000E+00  0.00000E+00  0.00000E+00    0.10135E+03  0.00000E+00  0.00000E+00 -0.23433E+00  0.15030E+00  0.28192E+00
  0.49999E-02  0.10187E+03    0.50000E-02 -0.23911E-02 -0.26089E-02  0.00000E+00  0.00000E+00  0.00000E+00    0.10187E+03  0.00000E+00  0.00000E+00 -0.23494E+00  0.15149E+00  0.28284E+00
  0.59999E-02  0.10239E+03    0.60000E-02 -0.28685E-02 -0.31315E-02  0.00000E+00  0.00000E+00  0.00000E+00    0.10239E+03  0.00000E+00  0.00000E+00 -0.23551E+00  0.15271E+00  0.28370E+00
  0.69998E-02  0.10290E+03    0.70000E-02 -0.33457E-02 -0.36543E-02  0.00000E+00  0.00000E+00  0.00000E+00    0.10290E+03  0.00000E+00  0.00000E+00 -0.23604E+00  0.15396E+00  0.28450E+00
  0.79998E-02  0.10341E+03    0.80000E-02 -0.38230E-02 -0.41770E-02  0.00000E+00  0.00000E+00  0.00000E+00    0.10341E+03  0.00000E+00  0.00000E+00 -0.23652E+00  0.15524E+00  0.28527E+00
  0.89998E-02  0.10392E+03    0.90000E-02 -0.43001E-02 -0.46999E-02  0.00000E+00  0.00000E+00  0.00000E+00    0.10391E+03  0.00000E+00  0.00000E+00 -0.23697E+00  0.15654E+00  0.28600E+00
  0.99998E-02  0.10442E+03    0.10000E-01 -0.47773E-02 -0.52227E-02  0.00000E+00  0.00000E+00  0.00000E+00    0.10442E+03  0.00000E+00  0.00000E+00 -0.23737E+00  0.15787E+00  0.28672E+00
  0.11000E-01  0.10492E+03    0.11000E-01 -0.52543E-02 -0.57457E-02  0.00000E+00  0.00000E+00  0.00000E+00    0.10492E+03  0.00000E+00  0.00000E+00 -0.23773E+00  0.15923E+00  0.28741E+00
  0.12000E-01  0.10542E+03    0.12000E-01 -0.57314E-02 -0.62686E-02  0.00000E+00  0.00000E+00  0.00000E+00    0.10541E+03  0.00000E+00  0.00000E+00 -0.23805E+00  0.16060E+00  0.28808E+00
  0.13000E-01  0.10591E+03    0.13000E-01 -0.62084E-02 -0.67916E-02  0.00000E+00  0.00000E+00  0.00000E+00    0.10591E+03  0.00000E+00  0.00000E+00 -0.23834E+00  0.16201E+00  0.28874E+00
  0.14000E-01  0.10640E+03    0.14000E-01 -0.66854E-02 -0.73146E-02  0.00000E+00  0.00000E+00  0.00000E+00    0.10640E+03  0.00000E+00  0.00000E+00 -0.23858E+00  0.16343E+00  0.28938E+00
  0.15000E-01  0.10689E+03    0.15000E-01 -0.71623E-02 -0.78377E-02  0.00000E+00  0.00000E+00  0.00000E+00    0.10689E+03  0.00000E+00  0.00000E+00 -0.23878E+00  0.16488E+00  0.29001E+00
  0.16000E-01  0.10737E+03    0.16000E-01 -0.76393E-02 -0.83607E-02  0.00000E+00  0.00000E+00  0.00000E+00    0.10737E+03  0.00000E+00  0.00000E+00 -0.23894E+00  0.16635E+00  0.29063E+00
  0.17000E-01  0.10781E+03    0.17000E-01 -0.81162E-02 -0.88838E-02  0.00000E+00  0.00000E+00  0.00000E+00    0.10781E+03  0.00000E+00  0.00000E+00 -0.24167E+00  0.16668E+00  0.29115E+00
  0.18000E-01  0.10832E+03    0.18000E-01 -0.85931E-02 -0.94069E-02  0.00000E+00  0.00000E+00  0.00000E+00    0.10832E+03  0.00000E+00  0.00000E+00 -0.23931E+00  0.16916E+00  0.29183E+00
  0.19000E-01  0.10876E+03    0.19000E-01 -0.90699E-02 -0.99301E-02  0.00000E+00  0.00000E+00  0.00000E+00    0.10876E+03  0.00000E+00  0.00000E+00 -0.24184E+00  0.16970E+00  0.29234E+00
  0.20000E-01  0.10927E+03    0.20000E-01 -0.95468E-02 -0.10453E-01  0.00000E+00  0.00000E+00  0.00000E+00    0.10927E+03  0.00000E+00  0.00000E+00 -0.23937E+00  0.17225E+00  0.29298E+00
  0.21000E-01  0.10971E+03    0.21000E-01 -0.10024E-01 -0.10976E-01  0.00000E+00  0.00000E+00  0.00000E+00    0.10971E+03  0.00000E+00  0.00000E+00 -0.24185E+00  0.17282E+00  0.29351E+00
  0.22000E-01  0.11021E+03    0.22000E-01 -0.10500E-01 -0.11500E-01  0.00000E+00  0.00000E+00  0.00000E+00    0.11021E+03  0.00000E+00  0.00000E+00 -0.23930E+00  0.17543E+00  0.29411E+00
  0.22999E-01  0.11064E+03    0.23000E-01 -0.10977E-01 -0.12023E-01  0.00000E+00  0.00000E+00  0.00000E+00    0.11064E+03  0.00000E+00  0.00000E+00 -0.24170E+00  0.17601E+00  0.29464E+00
  0.23999E-01  0.11113E+03    0.24000E-01 -0.11454E-01 -0.12546E-01  0.00000E+00  0.00000E+00  0.00000E+00    0.11113E+03  0.00000E+00  0.00000E+00 -0.23907E+00  0.17868E+00  0.29521E+00
  0.24999E-01  0.11156E+03    0.25000E-01 -0.11931E-01 -0.13069E-01  0.00000E+00  0.00000E+00  0.00000E+00    0.11156E+03  0.00000E+00  0.00000E+00 -0.24141E+00  0.17930E+00  0.29574E+00
  0.25999E-01  0.11205E+03    0.26000E-01 -0.12407E-01 -0.13593E-01  0.00000E+00  0.00000E+00  0.00000E+00    0.11205E+03  0.00000E+00  0.00000E+00 -0.23870E+00  0.18203E+00  0.29627E+00
  0.26999E-01  0.11247E+03    0.27000E-01 -0.12884E-01 -0.14116E-01  0.00000E+00  0.00000E+00  0.00000E+00    0.11247E+03  0.00000E+00  0.00000E+00 -0.24098E+00  0.18265E+00  0.29680E+00
  0.27999E-01  0.11295E+03    0.28000E-01 -0.13361E-01 -0.14639E-01  0.00000E+00  0.00000E+00  0.00000E+00    0.11295E+03  0.00000E+00  0.00000E+00 -0.23818E+00  0.18546E+00  0.29732E+00
  0.28999E-01  0.11338E+03    0.29000E-01 -0.13837E-01 -0.15163E-01  0.00000E+00  0.00000E+00  0.00000E+00    0.11337E+03  0.00000E+00  0.00000E+00 -0.24041E+00  0.18610E+00  0.29785E+00
  0.29999E-01  0.11385E+03    0.30000E-01 -0.14314E-01 -0.15686E-01  0.00000E+00  0.00000E+00  0.00000E+00    0.11385E+03  0.00000E+00  0.00000E+00 -0.23754E+00  0.18896E+00  0.29834E+00
  0.30999E-01  0.11427E+03    0.31000E-01 -0.14791E-01 -0.16209E-01  0.00000E+00  0.00000E+00  0.00000E+00    0.11426E+03  0.00000E+00  0.00000E+00 -0.23970E+00  0.18962E+00  0.29887E+00
  0.31999E-01  0.11473E+03    0.32000E-01 -0.15267E-01 -0.16733E-01  0.00000E+00  0.00000E+00  0.00000E+00    0.11473E+03  0.00000E+00  0.00000E+00 -0.23676E+00  0.19255E+00  0.29933E+00
  0.32999E-01  0.11515E+03    0.33000E-01 -0.15744E-01 -0.17256E-01  0.00000E+00  0.00000E+00  0.00000E+00    0.11514E+03  0.00000E+00  0.00000E+00 -0.23886E+00  0.19322E+00  0.29988E+00
  0.33999E-01  0.11557E+03    0.34000E-01 -0.16220E-01 -0.17780E-01  0.00000E+00  0.00000E+00  0.00000E+00    0.11557E+03  0.00000E+00  0.00000E+00 -0.23874E+00  0.19488E+00  0.30035E+00
  0.34999E-01  0.11601E+03    0.35000E-01 -0.16697E-01 -0.18303E-01  0.00000E+00  0.00000E+00  0.00000E+00    0.11601E+03  0.00000E+00  0.00000E+00 -0.23798E+00  0.19682E+00  0.30086E+00
  0.35999E-01  0.11643E+03    0.36000E-01 -0.17173E-01 -0.18827E-01  0.00000E+00  0.00000E+00  0.00000E+00    0.11643E+03  0.00000E+00  0.00000E+00 -0.23773E+00  0.19859E+00  0.30131E+00
  0.36999E-01  0.11687E+03    0.37000E-01 -0.17650E-01 -0.19350E-01  0.00000E+00  0.00000E+00  0.00000E+00    0.11687E+03  0.00000E+00  0.00000E+00 -0.23689E+00  0.20057E+00  0.30182E+00
  0.37999E-01  0.11729E+03    0.38000E-01 -0.18126E-01 -0.19874E-01  0.00000E+00  0.00000E+00  0.00000E+00    0.11729E+03  0.00000E+00  0.00000E+00 -0.23657E+00  0.20237E+00  0.30226E+00
  0.38999E-01  0.11771E+03    0.39000E-01 -0.18602E-01 -0.20398E-01  0.00000E+00  0.00000E+00  0.00000E+00    0.11771E+03  0.00000E+00  0.00000E+00 -0.23600E+00  0.20428E+00  0.30273E+00
  0.39999E-01  0.11814E+03    0.40000E-01 -0.19079E-01 -0.20921E-01  0.00000E+00  0.00000E+00  0.00000E+00    0.11814E+03  0.00000E+00  0.00000E+00 -0.23502E+00  0.20633E+00  0.30323E+00
  0.40999E-01  0.11855E+03    0.41000E-01 -0.19555E-01 -0.21445E-01  0.00000E+00  0.00000E+00  0.00000E+00    0.11855E+03  0.00000E+00  0.00000E+00 -0.23461E+00  0.20818E+00  0.30367E+00
  0.41999E-01  0.11897E+03    0.42000E-01 -0.20031E-01 -0.21969E-01  0.00000E+00  0.00000E+00  0.00000E+00    0.11896E+03  0.00000E+00  0.00000E+00 -0.23395E+00  0.21013E+00  0.30412E+00
  0.42999E-01  0.11938E+03    0.43000E-01 -0.20508E-01 -0.22492E-01  0.00000E+00  0.00000E+00  0.00000E+00    0.11938E+03  0.00000E+00  0.00000E+00 -0.23322E+00  0.21212E+00  0.30458E+00
  0.43999E-01  0.11979E+03    0.44000E-01 -0.20984E-01 -0.23016E-01  0.00000E+00  0.00000E+00  0.00000E+00    0.11979E+03  0.00000E+00  0.00000E+00 -0.23245E+00  0.21413E+00  0.30504E+00
  0.44999E-01  0.12020E+03    0.45000E-01 -0.21460E-01 -0.23540E-01  0.00000E+00  0.00000E+00  0.00000E+00    0.12020E+03  0.00000E+00  0.00000E+00 -0.23166E+00  0.21615E+00  0.30549E+00
  0.45999E-01  0.12061E+03    0.46000E-01 -0.21936E-01 -0.24064E-01  0.00000E+00  0.00000E+00  0.00000E+00    0.12060E+03  0.00000E+00  0.00000E+00 -0.23083E+00  0.21819E+00  0.30594E+00
  0.46999E-01  0.12101E+03    0.47000E-01 -0.22412E-01 -0.24588E-01  0.00000E+00  0.00000E+00  0.00000E+00    0.12101E+03  0.00000E+00  0.00000E+00 -0.22997E+00  0.22025E+00  0.30639E+00
  0.47999E-01  0.12141E+03    0.48000E-01 -0.22889E-01 -0.25111E-01  0.00000E+00  0.00000E+00  0.00000E+00    0.12141E+03  0.00000E+00  0.00000E+00 -0.22909E+00  0.22232E+00  0.30684E+00
  0.48999E-01  0.12181E+03    0.49000E-01 -0.23365E-01 -0.25635E-01  0.00000E+00  0.00000E+00  0.00000E+00    0.12181E+03  0.00000E+00  0.00000E+00 -0.22819E+00  0.22440E+00  0.30729E+00
  0.49999E-01  0.12221E+03    0.50000E-01 -0.23841E-01 -0.26159E-01  0.00000E+00  0.00000E+00  0.00000E+00    0.12221E+03  0.00000E+00  0.00000E+00 -0.22725E+00  0.22651E+00  0.30774E+00
  0.50999E-01  0.12261E+03    0.51000E-01 -0.24317E-01 -0.26683E-01  0.00000E+00  0.00000E+00  0.00000E+00    0.12260E+03  0.00000E+00  0.00000E+00 -0.22629E+00  0.22864E+00  0.30818E+00
  0.51999E-01  0.12300E+03    0.52000E-01 -0.24793E-01 -0.27207E-01  0.00000E+00  0.00000E+00  0.00000E+00    0.12300E+03  0.00000E+00  0.00000E+00 -0.22531E+00  0.23078E+00  0.30862E+00
  0.52999E-01  0.12339E+03    0.53000E-01 -0.25269E-01 -0.27731E-01  0.00000E+00  0.00000E+00  0.00000E+00    0.12339E+03  0.00000E+00  0.00000E+00 -0.22430E+00  0.23293E+00  0.30906E+00
  0.53999E-01  0.12378E+03    0.54000E-01 -0.25745E-01 -0.28255E-01  0.00000E+00  0.00000E+00  0.00000E+00    0.12378E+03  0.00000E+00  0.00000E+00 -0.22327E+00  0.23510E+00  0.30950E+00
  0.54999E-01  0.12417E+03    0.55000E-01 -0.26221E-01 -0.28779E-01  0.00000E+00  0.00000E+00  0.00000E+00    0.12416E+03  0.00000E+00  0.00000E+00 -0.22221E+00  0.23728E+00  0.30995E+00
  0.55999E-01  0.12455E+03    0.56000E-01 -0.26697E-01 -0.29303E-01  0.00000E+00  0.00000E+00  0.00000E+00    0.12455E+03  0.00000E+00  0.00000E+00 -0.22112E+00  0.23948E+00  0.31039E+00
  0.56999E-01  0.12493E+03    0.57000E-01 -0.27173E-01 -0.29827E-01  0.00000E+00  0.00000E+00  0.00000E+00    0.12493E+03  0.00000E+00  0.00000E+00 -0.22001E+00  0.24169E+00  0.31083E+00
  0.57999E-01  0.12531E+03    0.58000E-01 -0.27648E-01 -0.30352E-01  0.00000E+00  0.00000E+00  0.00000E+00    0.12531E+03  0.00000E+00  0.00000E+00 -0.21887E+00  0.24392E+00  0.31127E+00
  0.58999E-01  0.12569E+03    0.59000E-01 -0.28124E-01 -0.30876E-01  0.00000E+00  0.00000E+00  0.00000E+00    0.12569E+03  0.00000E+00  0.00000E+00 -0.21772E+00  0.24617E+00  0.31172E+00
  0.59999E-01  0.12607E+03    0.60000E-01 -0.28600E-01 -0.31400E-01  0.00000E+00  0.00000E+00  0.00000E+00    0.12607E+03  0.00000E+00  0.00000E+00 -0.21654E+00  0.24842E+00  0.31216E+00
  0.60999E-01  0.12644E+03    0.61000E-01 -0.29076E-01 -0.31924E-01  0.00000E+00  0.00000E+00  0.00000E+00    0.12644E+03  0.00000E+00  0.00000E+00 -0.21533E+00  0.25070E+00  0.31261E+00
  0.61999E-01  0.12683E+03    0.62000E-01 -0.29552E-01 -0.32448E-01  0.00000E+00  0.00000E+00  0.00000E+00    0.12682E+03  0.00000E+00  0.00000E+00 -0.20794E+00  0.25542E+00  0.31314E+00
  0.62999E-01  0.12722E+03    0.63000E-01 -0.30027E-01 -0.32973E-01  0.00000E+00  0.00000E+00  0.00000E+00    0.12722E+03  0.00000E+00  0.00000E+00 -0.20701E+00  0.25795E+00  0.31357E+00
  0.63999E-01  0.12759E+03    0.64000E-01 -0.30503E-01 -0.33497E-01  0.00000E+00  0.00000E+00  0.00000E+00    0.12759E+03  0.00000E+00  0.00000E+00 -0.20582E+00  0.26030E+00  0.31401E+00
  0.64999E-01  0.12796E+03    0.65000E-01 -0.30979E-01 -0.34021E-01  0.00000E+00  0.00000E+00  0.00000E+00    0.12795E+03  0.00000E+00  0.00000E+00 -0.20451E+00  0.26267E+00  0.31446E+00
  0.65999E-01  0.12832E+03    0.66000E-01 -0.31454E-01 -0.34546E-01  0.00000E+00  0.00000E+00  0.00000E+00    0.12832E+03  0.00000E+00  0.00000E+00 -0.20318E+00  0.26505E+00  0.31491E+00
  0.66999E-01  0.12868E+03    0.67000E-01 -0.31930E-01 -0.35070E-01  0.00000E+00  0.00000E+00  0.00000E+00    0.12868E+03  0.00000E+00  0.00000E+00 -0.20184E+00  0.26744E+00  0.31536E+00
  0.67999E-01  0.12904E+03    0.68000E-01 -0.32406E-01 -0.35594E-01  0.00000E+00  0.00000E+00  0.00000E+00    0.12904E+03  0.00000E+00  0.00000E+00 -0.20048E+00  0.26984E+00  0.31582E+00
  0.68999E-01  0.12940E+03    0.69000E-01 -0.32881E-01 -0.36119E-01  0.00000E+00  0.00000E+00  0.00000E+00    0.12940E+03  0.00000E+00  0.00000E+00 -0.19910E+00  0.27227E+00  0.31628E+00
  0.69999E-01  0.12976E+03    0.70000E-01 -0.33357E-01 -0.36643E-01  0.00000E+00  0.00000E+00  0.00000E+00    0.12975E+03  0.00000E+00  0.00000E+00 -0.19769E+00  0.27470E+00  0.31675E+00
  0.70999E-01  0.13011E+03    0.71000E-01 -0.33832E-01 -0.37168E-01  0.00000E+00  0.00000E+00  0.00000E+00    0.13011E+03  0.00000E+00  0.00000E+00 -0.19627E+00  0.27715E+00  0.31721E+00
  0.71998E-01  0.13046E+03    0.72000E-01 -0.34308E-01 -0.37692E-01  0.00000E+00  0.00000E+00  0.00000E+00    0.13046E+03  0.00000E+00  0.00000E+00 -0.19482E+00  0.27961E+00  0.31769E+00
  0.72998E-01  0.13081E+03    0.73000E-01 -0.34783E-01 -0.38217E-01  0.00000E+00  0.00000E+00  0.00000E+00    0.13081E+03  0.00000E+00  0.00000E+00 -0.19336E+00  0.28209E+00  0.31816E+00
  0.73998E-01  0.13116E+03    0.74000E-01 -0.35258E-01 -0.38742E-01  0.00000E+00  0.00000E+00  0.00000E+00    0.13116E+03  0.00000E+00  0.00000E+00 -0.19187E+00  0.28458E+00  0.31864E+00
  0.74998E-01  0.13151E+03    0.75000E-01 -0.35734E-01 -0.39266E-01  0.00000E+00  0.00000E+00  0.00000E+00    0.13151E+03  0.00000E+00  0.00000E+00 -0.19037E+00  0.28709E+00  0.31913E+00
  0.75998E-01  0.13185E+03    0.76000E-01 -0.36209E-01 -0.39791E-01  0.00000E+00  0.00000E+00  0.00000E+00    0.13185E+03  0.00000E+00  0.00000E+00 -0.18884E+00  0.28961E+00  0.31962E+00
  0.76998E-01  0.13220E+03    0.77000E-01 -0.36684E-01 -0.40316E-01  0.00000E+00  0.00000E+00  0.00000E+00    0.13219E+03  0.00000E+00  0.00000E+00 -0.18730E+00  0.29215E+00  0.32012E+00
  0.77998E-01  0.13254E+03    0.78000E-01 -0.37160E-01 -0.40840E-01  0.00000E+00  0.00000E+00  0.00000E+00    0.13254E+03  0.00000E+00  0.00000E+00 -0.18573E+00  0.29470E+00  0.32063E+00
  0.78998E-01  0.13288E+03    0.79000E-01 -0.37635E-01 -0.41365E-01  0.00000E+00  0.00000E+00  0.00000E+00    0.13288E+03  0.00000E+00  0.00000E+00 -0.18415E+00  0.29727E+00  0.32114E+00
  0.79998E-01  0.13322E+03    0.80000E-01 -0.38110E-01 -0.41890E-01  0.00000E+00  0.00000E+00  0.00000E+00    0.13321E+03  0.00000E+00  0.00000E+00 -0.18255E+00  0.29985E+00  0.32165E+00
  0.80998E-01  0.13355E+03    0.81000E-01 -0.38586E-01 -0.42414E-01  0.00000E+00  0.00000E+00  0.00000E+00    0.13355E+03  0.00000E+00  0.00000E+00 -0.18093E+00  0.30245E+00  0.32218E+00
  0.81998E-01  0.13389E+03    0.82000E-01 -0.39061E-01 -0.42939E-01  0.00000E+00  0.00000E+00  0.00000E+00    0.13388E+03  0.00000E+00  0.00000E+00 -0.17929E+00  0.30506E+00  0.32271E+00
  0.82998E-01  0.13422E+03    0.83000E-01 -0.39536E-01 -0.43464E-01  0.00000E+00  0.00000E+00  0.00000E+00    0.13422E+03  0.00000E+00  0.00000E+00 -0.17764E+00  0.30769E+00  0.32325E+00
  0.83998E-01  0.13455E+03    0.84000E-01 -0.40011E-01 -0.43989E-01  0.00000E+00  0.00000E+00  0.00000E+00    0.13455E+03  0.00000E+00  0.00000E+00 -0.17597E+00  0.31034E+00  0.32380E+00
  0.84998E-01  0.13488E+03    0.85000E-01 -0.40486E-01 -0.44514E-01  0.00000E+00  0.00000E+00  0.00000E+00    0.13488E+03  0.00000E+00  0.00000E+00 -0.17428E+00  0.31300E+00  0.32436E+00
  0.85998E-01  0.13521E+03    0.86000E-01 -0.40961E-01 -0.45039E-01  0.00000E+00  0.00000E+00  0.00000E+00    0.13521E+03  0.00000E+00  0.00000E+00 -0.17257E+00  0.31568E+00  0.32493E+00
  0.86998E-01  0.13553E+03    0.87000E-01 -0.41436E-01 -0.45564E-01  0.00000E+00  0.00000E+00  0.00000E+00    0.13553E+03  0.00000E+00  0.00000E+00 -0.17085E+00  0.31837E+00  0.32550E+00
  0.87998E-01  0.13586E+03    0.88000E-01 -0.41911E-01 -0.46089E-01  0.00000E+00  0.00000E+00  0.00000E+00    0.13586E+03  0.00000E+00  0.00000E+00 -0.16911E+00  0.32108E+00  0.32609E+00
  0.88998E-01  0.13618E+03    0.89000E-01 -0.42386E-01 -0.46614E-01  0.00000E+00  0.00000E+00  0.00000E+00    0.13618E+03  0.00000E+00  0.00000E+00 -0.16735E+00  0.32381E+00  0.32668E+00
  0.89998E-01  0.13650E+03    0.90000E-01 -0.42861E-01 -0.47139E-01  0.00000E+00  0.00000E+00  0.00000E+00    0.13650E+03  0.00000E+00  0.00000E+00 -0.16558E+00  0.32655E+00  0.32729E+00
  0.90998E-01  0.13682E+03    0.91000E-01 -0.43336E-01 -0.47664E-01  0.00000E+00  0.00000E+00  0.00000E+00    0.13682E+03  0.00000E+00  0.00000E+00 -0.16379E+00  0.32931E+00  0.32791E+00
  0.91998E-01  0.13714E+03    0.92000E-01 -0.43811E-01 -0.48189E-01  0.00000E+00  0.00000E+00  0.00000E+00    0.13714E+03  0.00000E+00  0.00000E+00 -0.16198E+00  0.33209E+00  0.32854E+00
  0.92998E-01  0.13746E+03    0.93000E-01 -0.44286E-01 -0.48714E-01  0.00000E+00  0.00000E+00  0.00000E+00    0.13745E+03  0.00000E+00  0.00000E+00 -0.16016E+00  0.33489E+00  0.32918E+00
  0.93998E-01  0.13777E+03    0.94000E-01 -0.44761E-01 -0.49239E-01  0.00000E+00  0.00000E+00  0.00000E+00    0.13777E+03  0.00000E+00  0.00000E+00 -0.15833E+00  0.33770E+00  0.32984E+00
  0.94998E-01  0.13809E+03    0.95000E-01 -0.45236E-01 -0.49764E-01  0.00000E+00  0.00000E+00  0.00000E+00    0.13808E+03  0.00000E+00  0.00000E+00 -0.15648E+00  0.34054E+00  0.33050E+00
  0.95998E-01  0.13840E+03    0.96000E-01 -0.45711E-01 -0.50289E-01  0.00000E+00  0.00000E+00  0.00000E+00    0.13839E+03  0.00000E+00  0.00000E+00 -0.15462E+00  0.34339E+00  0.33118E+00
  0.96998E-01  0.13871E+03    0.97000E-01 -0.46186E-01 -0.50814E-01  0.00000E+00  0.00000E+00  0.00000E+00    0.13870E+03  0.00000E+00  0.00000E+00 -0.15274E+00  0.34625E+00  0.33187E+00
  0.97998E-01  0.13902E+03    0.98000E-01 -0.46661E-01 -0.51339E-01  0.00000E+00  0.00000E+00  0.00000E+00    0.13901E+03  0.00000E+00  0.00000E+00 -0.15084E+00  0.34914E+00  0.33258E+00
  0.98998E-01  0.13932E+03    0.99000E-01 -0.47135E-01 -0.51865E-01  0.00000E+00  0.00000E+00  0.00000E+00    0.13932E+03  0.00000E+00  0.00000E+00 -0.14894E+00  0.35205E+00  0.33330E+00
  0.99998E-01  0.13963E+03    0.10000E+00 -0.47610E-01 -0.52390E-01  0.00000E+00  0.00000E+00  0.00000E+00    0.13963E+03  0.00000E+00  0.00000E+00 -0.14702E+00  0.35497E+00  0.33404E+00
