          Evm          Svm            E11          E22          E33          E23          E13          E12         SCAU11       SCAU22       SCAU33       SCAU23       SCAU13       SCAU12      TEMP
  0.00000E+00  0.83072E+02    0.00000E+00  0.00000E+00  0.00000E+00  0.00000E+00  0.00000E+00  0.00000E+00    0.83070E+02  0.00000E+00  0.00000E+00 -0.19267E+00  0.11945E+00  0.22954E+00
  0.99998E-03  0.83573E+02    0.10000E-02 -0.47967E-03 -0.52033E-03  0.00000E+00  0.00000E+00  0.00000E+00    0.83571E+02  0.00000E+00  0.00000E+00 -0.19666E+00  0.12228E+00  0.23249E+00
  0.20000E-02  0.84046E+02    0.20000E-02 -0.95784E-03 -0.10422E-02  0.00000E+00  0.00000E+00  0.00000E+00    0.84044E+02  0.00000E+00  0.00000E+00 -0.19691E+00  0.12320E+00  0.23441E+00
  0.29999E-02  0.84561E+02    0.30000E-02 -0.14356E-02 -0.15644E-02  0.00000E+00  0.00000E+00  0.00000E+00    0.84559E+02  0.00000E+00  0.00000E+00 -0.19611E+00  0.12502E+00  0.23562E+00
  0.39999E-02  0.85089E+02    0.40000E-02 -0.19132E-02 -0.20868E-02  0.00000E+00  0.00000E+00  0.00000E+00    0.85087E+02  0.00000E+00  0.00000E+00 -0.19692E+00  0.12620E+00  0.23676E+00
  0.49999E-02  0.85608E+02    0.50000E-02 -0.23906E-02 -0.26094E-02  0.00000E+00  0.00000E+00  0.00000E+00    0.85606E+02  0.00000E+00  0.00000E+00 -0.19768E+00  0.12731E+00  0.23772E+00
  0.59999E-02  0.86122E+02    0.60000E-02 -0.28679E-02 -0.31321E-02  0.00000E+00  0.00000E+00  0.00000E+00    0.86120E+02  0.00000E+00  0.00000E+00 -0.19838E+00  0.12844E+00  0.23862E+00
  0.69998E-02  0.86634E+02    0.70000E-02 -0.33452E-02 -0.36548E-02  0.00000E+00  0.00000E+00  0.00000E+00    0.86632E+02  0.00000E+00  0.00000E+00 -0.19904E+00  0.12960E+00  0.23948E+00
  0.79998E-02  0.87142E+02    0.80000E-02 -0.38224E-02 -0.41776E-02  0.00000E+00  0.00000E+00  0.00000E+00    0.87140E+02  0.00000E+00  0.00000E+00 -0.19966E+00  0.13078E+00  0.24031E+00
  0.89998E-02  0.87648E+02    0.90000E-02 -0.42995E-02 -0.47005E-02  0.00000E+00  0.00000E+00  0.00000E+00    0.87646E+02  0.00000E+00  0.00000E+00 -0.20025E+00  0.13198E+00  0.24112E+00
  0.99998E-02  0.88150E+02    0.10000E-01 -0.47766E-02 -0.52234E-02  0.00000E+00  0.00000E+00  0.00000E+00    0.88148E+02  0.00000E+00  0.00000E+00 -0.20079E+00  0.13320E+00  0.24190E+00
  0.11000E-01  0.88649E+02    0.11000E-01 -0.52537E-02 -0.57463E-02  0.00000E+00  0.00000E+00  0.00000E+00    0.88647E+02  0.00000E+00  0.00000E+00 -0.20130E+00  0.13444E+00  0.24267E+00
  0.12000E-01  0.89145E+02    0.12000E-01 -0.57307E-02 -0.62693E-02  0.00000E+00  0.00000E+00  0.00000E+00    0.89143E+02  0.00000E+00  0.00000E+00 -0.20177E+00  0.13571E+00  0.24343E+00
  0.13000E-01  0.89638E+02    0.13000E-01 -0.62077E-02 -0.67923E-02  0.00000E+00  0.00000E+00  0.00000E+00    0.89636E+02  0.00000E+00  0.00000E+00 -0.20220E+00  0.13699E+00  0.24417E+00
  0.14000E-01  0.90128E+02    0.14000E-01 -0.66847E-02 -0.73153E-02  0.00000E+00  0.00000E+00  0.00000E+00    0.90126E+02  0.00000E+00  0.00000E+00 -0.20260E+00  0.13830E+00  0.24490E+00
  0.15000E-01  0.90615E+02    0.15000E-01 -0.71617E-02 -0.78383E-02  0.00000E+00  0.00000E+00  0.00000E+00    0.90613E+02  0.00000E+00  0.00000E+00 -0.20295E+00  0.13962E+00  0.24562E+00
  0.16000E-01  0.91099E+02    0.16000E-01 -0.76386E-02 -0.83614E-02  0.00000E+00  0.00000E+00  0.00000E+00    0.91097E+02  0.00000E+00  0.00000E+00 -0.20328E+00  0.14097E+00  0.24632E+00
  0.17000E-01  0.91580E+02    0.17000E-01 -0.81155E-02 -0.88845E-02  0.00000E+00  0.00000E+00  0.00000E+00    0.91578E+02  0.00000E+00  0.00000E+00 -0.20356E+00  0.14234E+00  0.24702E+00
  0.18000E-01  0.92058E+02    0.18000E-01 -0.85924E-02 -0.94076E-02  0.00000E+00  0.00000E+00  0.00000E+00    0.92056E+02  0.00000E+00  0.00000E+00 -0.20381E+00  0.14372E+00  0.24770E+00
  0.19000E-01  0.92534E+02    0.19000E-01 -0.90692E-02 -0.99308E-02  0.00000E+00  0.00000E+00  0.00000E+00    0.92532E+02  0.00000E+00  0.00000E+00 -0.20402E+00  0.14513E+00  0.24838E+00
  0.20000E-01  0.93006E+02    0.20000E-01 -0.95461E-02 -0.10454E-01  0.00000E+00  0.00000E+00  0.00000E+00    0.93004E+02  0.00000E+00  0.00000E+00 -0.20420E+00  0.14656E+00  0.24904E+00
  0.21000E-01  0.93476E+02    0.21000E-01 -0.10023E-01 -0.10977E-01  0.00000E+00  0.00000E+00  0.00000E+00    0.93474E+02  0.00000E+00  0.00000E+00 -0.20434E+00  0.14800E+00  0.24970E+00
  0.22000E-01  0.93943E+02    0.22000E-01 -0.10500E-01 -0.11500E-01  0.00000E+00  0.00000E+00  0.00000E+00    0.93941E+02  0.00000E+00  0.00000E+00 -0.20445E+00  0.14946E+00  0.25035E+00
  0.22999E-01  0.94407E+02    0.23000E-01 -0.10976E-01 -0.12024E-01  0.00000E+00  0.00000E+00  0.00000E+00    0.94405E+02  0.00000E+00  0.00000E+00 -0.20452E+00  0.15095E+00  0.25099E+00
  0.23999E-01  0.94868E+02    0.24000E-01 -0.11453E-01 -0.12547E-01  0.00000E+00  0.00000E+00  0.00000E+00    0.94866E+02  0.00000E+00  0.00000E+00 -0.20455E+00  0.15245E+00  0.25163E+00
  0.24999E-01  0.95327E+02    0.25000E-01 -0.11930E-01 -0.13070E-01  0.00000E+00  0.00000E+00  0.00000E+00    0.95325E+02  0.00000E+00  0.00000E+00 -0.20456E+00  0.15397E+00  0.25225E+00
  0.25999E-01  0.95783E+02    0.26000E-01 -0.12407E-01 -0.13593E-01  0.00000E+00  0.00000E+00  0.00000E+00    0.95781E+02  0.00000E+00  0.00000E+00 -0.20453E+00  0.15552E+00  0.25287E+00
  0.26999E-01  0.96236E+02    0.27000E-01 -0.12883E-01 -0.14117E-01  0.00000E+00  0.00000E+00  0.00000E+00    0.96234E+02  0.00000E+00  0.00000E+00 -0.20446E+00  0.15707E+00  0.25348E+00
  0.27999E-01  0.96686E+02    0.28000E-01 -0.13360E-01 -0.14640E-01  0.00000E+00  0.00000E+00  0.00000E+00    0.96684E+02  0.00000E+00  0.00000E+00 -0.20437E+00  0.15865E+00  0.25408E+00
  0.28999E-01  0.97134E+02    0.29000E-01 -0.13837E-01 -0.15163E-01  0.00000E+00  0.00000E+00  0.00000E+00    0.97132E+02  0.00000E+00  0.00000E+00 -0.20424E+00  0.16025E+00  0.25468E+00
  0.29999E-01  0.97579E+02    0.30000E-01 -0.14313E-01 -0.15687E-01  0.00000E+00  0.00000E+00  0.00000E+00    0.97577E+02  0.00000E+00  0.00000E+00 -0.20408E+00  0.16186E+00  0.25527E+00
  0.30999E-01  0.98022E+02    0.31000E-01 -0.14790E-01 -0.16210E-01  0.00000E+00  0.00000E+00  0.00000E+00    0.98020E+02  0.00000E+00  0.00000E+00 -0.20390E+00  0.16350E+00  0.25586E+00
  0.31999E-01  0.98462E+02    0.32000E-01 -0.15266E-01 -0.16734E-01  0.00000E+00  0.00000E+00  0.00000E+00    0.98460E+02  0.00000E+00  0.00000E+00 -0.20367E+00  0.16515E+00  0.25644E+00
  0.32999E-01  0.98899E+02    0.33000E-01 -0.15743E-01 -0.17257E-01  0.00000E+00  0.00000E+00  0.00000E+00    0.98897E+02  0.00000E+00  0.00000E+00 -0.20342E+00  0.16682E+00  0.25701E+00
  0.33999E-01  0.99334E+02    0.34000E-01 -0.16219E-01 -0.17781E-01  0.00000E+00  0.00000E+00  0.00000E+00    0.99332E+02  0.00000E+00  0.00000E+00 -0.20314E+00  0.16851E+00  0.25758E+00
  0.34999E-01  0.99732E+02    0.35000E-01 -0.16696E-01 -0.18304E-01  0.00000E+00  0.00000E+00  0.00000E+00    0.99730E+02  0.00000E+00  0.00000E+00 -0.20551E+00  0.16891E+00  0.25813E+00
  0.35999E-01  0.10019E+03    0.36000E-01 -0.17172E-01 -0.18828E-01  0.00000E+00  0.00000E+00  0.00000E+00    0.10019E+03  0.00000E+00  0.00000E+00 -0.20266E+00  0.17181E+00  0.25867E+00
  0.36999E-01  0.10059E+03    0.37000E-01 -0.17649E-01 -0.19351E-01  0.00000E+00  0.00000E+00  0.00000E+00    0.10059E+03  0.00000E+00  0.00000E+00 -0.20482E+00  0.17233E+00  0.25924E+00
  0.37999E-01  0.10101E+03    0.38000E-01 -0.18125E-01 -0.19875E-01  0.00000E+00  0.00000E+00  0.00000E+00    0.10101E+03  0.00000E+00  0.00000E+00 -0.20450E+00  0.17400E+00  0.25979E+00
  0.38999E-01  0.10144E+03    0.39000E-01 -0.18602E-01 -0.20398E-01  0.00000E+00  0.00000E+00  0.00000E+00    0.10144E+03  0.00000E+00  0.00000E+00 -0.20407E+00  0.17575E+00  0.26034E+00
  0.39999E-01  0.10186E+03    0.40000E-01 -0.19078E-01 -0.20922E-01  0.00000E+00  0.00000E+00  0.00000E+00    0.10186E+03  0.00000E+00  0.00000E+00 -0.20362E+00  0.17752E+00  0.26088E+00
  0.40999E-01  0.10228E+03    0.41000E-01 -0.19554E-01 -0.21446E-01  0.00000E+00  0.00000E+00  0.00000E+00    0.10227E+03  0.00000E+00  0.00000E+00 -0.20314E+00  0.17930E+00  0.26142E+00
  0.41999E-01  0.10269E+03    0.42000E-01 -0.20031E-01 -0.21969E-01  0.00000E+00  0.00000E+00  0.00000E+00    0.10269E+03  0.00000E+00  0.00000E+00 -0.20264E+00  0.18110E+00  0.26196E+00
  0.42999E-01  0.10310E+03    0.43000E-01 -0.20507E-01 -0.22493E-01  0.00000E+00  0.00000E+00  0.00000E+00    0.10310E+03  0.00000E+00  0.00000E+00 -0.20210E+00  0.18292E+00  0.26250E+00
  0.43999E-01  0.10353E+03    0.44000E-01 -0.20983E-01 -0.23017E-01  0.00000E+00  0.00000E+00  0.00000E+00    0.10353E+03  0.00000E+00  0.00000E+00 -0.19894E+00  0.18606E+00  0.26295E+00
  0.44999E-01  0.10392E+03    0.45000E-01 -0.21459E-01 -0.23541E-01  0.00000E+00  0.00000E+00  0.00000E+00    0.10392E+03  0.00000E+00  0.00000E+00 -0.20089E+00  0.18667E+00  0.26355E+00
  0.45999E-01  0.10435E+03    0.46000E-01 -0.21936E-01 -0.24064E-01  0.00000E+00  0.00000E+00  0.00000E+00    0.10435E+03  0.00000E+00  0.00000E+00 -0.19774E+00  0.18981E+00  0.26399E+00
  0.46999E-01  0.10473E+03    0.47000E-01 -0.22412E-01 -0.24588E-01  0.00000E+00  0.00000E+00  0.00000E+00    0.10473E+03  0.00000E+00  0.00000E+00 -0.19962E+00  0.19041E+00  0.26460E+00
  0.47999E-01  0.10515E+03    0.48000E-01 -0.22888E-01 -0.25112E-01  0.00000E+00  0.00000E+00  0.00000E+00    0.10515E+03  0.00000E+00  0.00000E+00 -0.19643E+00  0.19361E+00  0.26502E+00
  0.48999E-01  0.10553E+03    0.49000E-01 -0.23364E-01 -0.25636E-01  0.00000E+00  0.00000E+00  0.00000E+00    0.10553E+03  0.00000E+00  0.00000E+00 -0.19826E+00  0.19421E+00  0.26564E+00
  0.49999E-01  0.10592E+03    0.50000E-01 -0.23840E-01 -0.26160E-01  0.00000E+00  0.00000E+00  0.00000E+00    0.10592E+03  0.00000E+00  0.00000E+00 -0.19789E+00  0.19595E+00  0.26612E+00
  0.50999E-01  0.10632E+03    0.51000E-01 -0.24316E-01 -0.26684E-01  0.00000E+00  0.00000E+00  0.00000E+00    0.10632E+03  0.00000E+00  0.00000E+00 -0.19687E+00  0.19801E+00  0.26666E+00
  0.51999E-01  0.10670E+03    0.52000E-01 -0.24792E-01 -0.27208E-01  0.00000E+00  0.00000E+00  0.00000E+00    0.10670E+03  0.00000E+00  0.00000E+00 -0.19639E+00  0.19984E+00  0.26715E+00
  0.52999E-01  0.10711E+03    0.53000E-01 -0.25268E-01 -0.27732E-01  0.00000E+00  0.00000E+00  0.00000E+00    0.10710E+03  0.00000E+00  0.00000E+00 -0.19531E+00  0.20193E+00  0.26767E+00
  0.53999E-01  0.10748E+03    0.54000E-01 -0.25744E-01 -0.28256E-01  0.00000E+00  0.00000E+00  0.00000E+00    0.10748E+03  0.00000E+00  0.00000E+00 -0.19478E+00  0.20378E+00  0.26816E+00
  0.54999E-01  0.10788E+03    0.55000E-01 -0.26220E-01 -0.28780E-01  0.00000E+00  0.00000E+00  0.00000E+00    0.10788E+03  0.00000E+00  0.00000E+00 -0.19365E+00  0.20590E+00  0.26868E+00
  0.55999E-01  0.10825E+03    0.56000E-01 -0.26696E-01 -0.29304E-01  0.00000E+00  0.00000E+00  0.00000E+00    0.10825E+03  0.00000E+00  0.00000E+00 -0.19307E+00  0.20778E+00  0.26917E+00
  0.56999E-01  0.10865E+03    0.57000E-01 -0.27172E-01 -0.29828E-01  0.00000E+00  0.00000E+00  0.00000E+00    0.10864E+03  0.00000E+00  0.00000E+00 -0.19189E+00  0.20994E+00  0.26969E+00
  0.57999E-01  0.10901E+03    0.58000E-01 -0.27648E-01 -0.30352E-01  0.00000E+00  0.00000E+00  0.00000E+00    0.10901E+03  0.00000E+00  0.00000E+00 -0.19127E+00  0.21184E+00  0.27019E+00
  0.58999E-01  0.10939E+03    0.59000E-01 -0.28124E-01 -0.30876E-01  0.00000E+00  0.00000E+00  0.00000E+00    0.10939E+03  0.00000E+00  0.00000E+00 -0.19039E+00  0.21388E+00  0.27069E+00
  0.59999E-01  0.10976E+03    0.60000E-01 -0.28600E-01 -0.31400E-01  0.00000E+00  0.00000E+00  0.00000E+00    0.10976E+03  0.00000E+00  0.00000E+00 -0.18944E+00  0.21594E+00  0.27119E+00
  0.60999E-01  0.11014E+03    0.61000E-01 -0.29075E-01 -0.31925E-01  0.00000E+00  0.00000E+00  0.00000E+00    0.11014E+03  0.00000E+00  0.00000E+00 -0.18847E+00  0.21801E+00  0.27169E+00
  0.61999E-01  0.11051E+03    0.62000E-01 -0.29551E-01 -0.32449E-01  0.00000E+00  0.00000E+00  0.00000E+00    0.11051E+03  0.00000E+00  0.00000E+00 -0.18747E+00  0.22010E+00  0.27219E+00
  0.62999E-01  0.11088E+03    0.63000E-01 -0.30027E-01 -0.32973E-01  0.00000E+00  0.00000E+00  0.00000E+00    0.11088E+03  0.00000E+00  0.00000E+00 -0.18644E+00  0.22221E+00  0.27269E+00
  0.63999E-01  0.11125E+03    0.64000E-01 -0.30503E-01 -0.33497E-01  0.00000E+00  0.00000E+00  0.00000E+00    0.11124E+03  0.00000E+00  0.00000E+00 -0.18540E+00  0.22433E+00  0.27320E+00
  0.64999E-01  0.11161E+03    0.65000E-01 -0.30978E-01 -0.34022E-01  0.00000E+00  0.00000E+00  0.00000E+00    0.11161E+03  0.00000E+00  0.00000E+00 -0.18433E+00  0.22646E+00  0.27370E+00
  0.65999E-01  0.11197E+03    0.66000E-01 -0.31454E-01 -0.34546E-01  0.00000E+00  0.00000E+00  0.00000E+00    0.11197E+03  0.00000E+00  0.00000E+00 -0.18324E+00  0.22861E+00  0.27421E+00
  0.66999E-01  0.11233E+03    0.67000E-01 -0.31930E-01 -0.35070E-01  0.00000E+00  0.00000E+00  0.00000E+00    0.11233E+03  0.00000E+00  0.00000E+00 -0.18213E+00  0.23076E+00  0.27471E+00
  0.67999E-01  0.11269E+03    0.68000E-01 -0.32405E-01 -0.35595E-01  0.00000E+00  0.00000E+00  0.00000E+00    0.11269E+03  0.00000E+00  0.00000E+00 -0.18100E+00  0.23294E+00  0.27522E+00
  0.68999E-01  0.11305E+03    0.69000E-01 -0.32881E-01 -0.36119E-01  0.00000E+00  0.00000E+00  0.00000E+00    0.11305E+03  0.00000E+00  0.00000E+00 -0.17985E+00  0.23512E+00  0.27573E+00
  0.69999E-01  0.11341E+03    0.70000E-01 -0.33356E-01 -0.36644E-01  0.00000E+00  0.00000E+00  0.00000E+00    0.11340E+03  0.00000E+00  0.00000E+00 -0.17869E+00  0.23732E+00  0.27624E+00
  0.70999E-01  0.11376E+03    0.71000E-01 -0.33832E-01 -0.37168E-01  0.00000E+00  0.00000E+00  0.00000E+00    0.11376E+03  0.00000E+00  0.00000E+00 -0.17750E+00  0.23953E+00  0.27676E+00
  0.71999E-01  0.11411E+03    0.72000E-01 -0.34308E-01 -0.37692E-01  0.00000E+00  0.00000E+00  0.00000E+00    0.11411E+03  0.00000E+00  0.00000E+00 -0.17629E+00  0.24176E+00  0.27728E+00
  0.72998E-01  0.11446E+03    0.73000E-01 -0.34783E-01 -0.38217E-01  0.00000E+00  0.00000E+00  0.00000E+00    0.11446E+03  0.00000E+00  0.00000E+00 -0.17506E+00  0.24400E+00  0.27780E+00
  0.73998E-01  0.11481E+03    0.74000E-01 -0.35258E-01 -0.38742E-01  0.00000E+00  0.00000E+00  0.00000E+00    0.11481E+03  0.00000E+00  0.00000E+00 -0.17381E+00  0.24625E+00  0.27832E+00
  0.74998E-01  0.11516E+03    0.75000E-01 -0.35734E-01 -0.39266E-01  0.00000E+00  0.00000E+00  0.00000E+00    0.11515E+03  0.00000E+00  0.00000E+00 -0.17254E+00  0.24852E+00  0.27885E+00
  0.75998E-01  0.11550E+03    0.76000E-01 -0.36209E-01 -0.39791E-01  0.00000E+00  0.00000E+00  0.00000E+00    0.11550E+03  0.00000E+00  0.00000E+00 -0.16517E+00  0.25351E+00  0.27942E+00
  0.76998E-01  0.11582E+03    0.77000E-01 -0.36685E-01 -0.40315E-01  0.00000E+00  0.00000E+00  0.00000E+00    0.11582E+03  0.00000E+00  0.00000E+00 -0.16546E+00  0.25550E+00  0.28002E+00
  0.77998E-01  0.11616E+03    0.78000E-01 -0.37160E-01 -0.40840E-01  0.00000E+00  0.00000E+00  0.00000E+00    0.11615E+03  0.00000E+00  0.00000E+00 -0.16389E+00  0.25790E+00  0.28058E+00
  0.78998E-01  0.11650E+03    0.79000E-01 -0.37635E-01 -0.41365E-01  0.00000E+00  0.00000E+00  0.00000E+00    0.11649E+03  0.00000E+00  0.00000E+00 -0.16254E+00  0.26024E+00  0.28113E+00
  0.79998E-01  0.11683E+03    0.80000E-01 -0.38111E-01 -0.41889E-01  0.00000E+00  0.00000E+00  0.00000E+00    0.11683E+03  0.00000E+00  0.00000E+00 -0.16118E+00  0.26260E+00  0.28169E+00
  0.80998E-01  0.11721E+03    0.81000E-01 -0.38586E-01 -0.42414E-01  0.00000E+00  0.00000E+00  0.00000E+00    0.11721E+03  0.00000E+00  0.00000E+00 -0.15843E+00  0.26551E+00  0.28219E+00
  0.81998E-01  0.11755E+03    0.82000E-01 -0.39061E-01 -0.42939E-01  0.00000E+00  0.00000E+00  0.00000E+00    0.11755E+03  0.00000E+00  0.00000E+00 -0.15739E+00  0.26783E+00  0.28273E+00
  0.82998E-01  0.11789E+03    0.83000E-01 -0.39536E-01 -0.43464E-01  0.00000E+00  0.00000E+00  0.00000E+00    0.11788E+03  0.00000E+00  0.00000E+00 -0.15598E+00  0.27023E+00  0.28329E+00
  0.83998E-01  0.11822E+03    0.84000E-01 -0.40011E-01 -0.43989E-01  0.00000E+00  0.00000E+00  0.00000E+00    0.11821E+03  0.00000E+00  0.00000E+00 -0.15454E+00  0.27265E+00  0.28387E+00
  0.84998E-01  0.11854E+03    0.85000E-01 -0.40487E-01 -0.44513E-01  0.00000E+00  0.00000E+00  0.00000E+00    0.11854E+03  0.00000E+00  0.00000E+00 -0.15310E+00  0.27509E+00  0.28446E+00
  0.85998E-01  0.11887E+03    0.86000E-01 -0.40962E-01 -0.45038E-01  0.00000E+00  0.00000E+00  0.00000E+00    0.11887E+03  0.00000E+00  0.00000E+00 -0.15163E+00  0.27754E+00  0.28505E+00
  0.86998E-01  0.11919E+03    0.87000E-01 -0.41437E-01 -0.45563E-01  0.00000E+00  0.00000E+00  0.00000E+00    0.11919E+03  0.00000E+00  0.00000E+00 -0.15015E+00  0.28000E+00  0.28565E+00
  0.87998E-01  0.11952E+03    0.88000E-01 -0.41912E-01 -0.46088E-01  0.00000E+00  0.00000E+00  0.00000E+00    0.11952E+03  0.00000E+00  0.00000E+00 -0.14865E+00  0.28248E+00  0.28625E+00
  0.88998E-01  0.11984E+03    0.89000E-01 -0.42387E-01 -0.46613E-01  0.00000E+00  0.00000E+00  0.00000E+00    0.11984E+03  0.00000E+00  0.00000E+00 -0.14714E+00  0.28498E+00  0.28687E+00
  0.89998E-01  0.12016E+03    0.90000E-01 -0.42862E-01 -0.47138E-01  0.00000E+00  0.00000E+00  0.00000E+00    0.12016E+03  0.00000E+00  0.00000E+00 -0.14561E+00  0.28749E+00  0.28750E+00
  0.90998E-01  0.12048E+03    0.91000E-01 -0.43337E-01 -0.47663E-01  0.00000E+00  0.00000E+00  0.00000E+00    0.12048E+03  0.00000E+00  0.00000E+00 -0.14407E+00  0.29002E+00  0.28813E+00
  0.91998E-01  0.12079E+03    0.92000E-01 -0.43812E-01 -0.48188E-01  0.00000E+00  0.00000E+00  0.00000E+00    0.12079E+03  0.00000E+00  0.00000E+00 -0.14251E+00  0.29256E+00  0.28877E+00
  0.92998E-01  0.12111E+03    0.93000E-01 -0.44287E-01 -0.48713E-01  0.00000E+00  0.00000E+00  0.00000E+00    0.12111E+03  0.00000E+00  0.00000E+00 -0.14093E+00  0.29512E+00  0.28943E+00
  0.93998E-01  0.12142E+03    0.94000E-01 -0.44762E-01 -0.49238E-01  0.00000E+00  0.00000E+00  0.00000E+00    0.12142E+03  0.00000E+00  0.00000E+00 -0.13934E+00  0.29770E+00  0.29009E+00
  0.94998E-01  0.12174E+03    0.95000E-01 -0.45237E-01 -0.49763E-01  0.00000E+00  0.00000E+00  0.00000E+00    0.12173E+03  0.00000E+00  0.00000E+00 -0.13774E+00  0.30029E+00  0.29077E+00
  0.95998E-01  0.12205E+03    0.96000E-01 -0.45712E-01 -0.50288E-01  0.00000E+00  0.00000E+00  0.00000E+00    0.12204E+03  0.00000E+00  0.00000E+00 -0.13612E+00  0.30289E+00  0.29145E+00
  0.96998E-01  0.12235E+03    0.97000E-01 -0.46186E-01 -0.50814E-01  0.00000E+00  0.00000E+00  0.00000E+00    0.12235E+03  0.00000E+00  0.00000E+00 -0.13449E+00  0.30552E+00  0.29215E+00
  0.97998E-01  0.12266E+03    0.98000E-01 -0.46661E-01 -0.51339E-01  0.00000E+00  0.00000E+00  0.00000E+00    0.12266E+03  0.00000E+00  0.00000E+00 -0.13284E+00  0.30816E+00  0.29286E+00
  0.98998E-01  0.12297E+03    0.99000E-01 -0.47136E-01 -0.51864E-01  0.00000E+00  0.00000E+00  0.00000E+00    0.12297E+03  0.00000E+00  0.00000E+00 -0.13118E+00  0.31082E+00  0.29358E+00
  0.99998E-01  0.12327E+03    0.10000E+00 -0.47611E-01 -0.52389E-01  0.00000E+00  0.00000E+00  0.00000E+00    0.12327E+03  0.00000E+00  0.00000E+00 -0.12951E+00  0.31349E+00  0.29432E+00
