          Evm          Svm            E11          E22          E33          E23          E13          E12         SCAU11       SCAU22       SCAU33       SCAU23       SCAU13       SCAU12      TEMP
  0.00000E+00  0.74459E+02    0.00000E+00  0.00000E+00  0.00000E+00  0.00000E+00  0.00000E+00  0.00000E+00    0.74458E+02  0.00000E+00  0.00000E+00 -0.17269E+00  0.10707E+00  0.20574E+00
  0.99998E-03  0.74961E+02    0.10000E-02 -0.47967E-03 -0.52033E-03  0.00000E+00  0.00000E+00  0.00000E+00    0.74959E+02  0.00000E+00  0.00000E+00 -0.17664E+00  0.10967E+00  0.20852E+00
  0.20000E-02  0.75434E+02    0.20000E-02 -0.95784E-03 -0.10422E-02  0.00000E+00  0.00000E+00  0.00000E+00    0.75432E+02  0.00000E+00  0.00000E+00 -0.17696E+00  0.11059E+00  0.21037E+00
  0.29999E-02  0.75957E+02    0.30000E-02 -0.14356E-02 -0.15644E-02  0.00000E+00  0.00000E+00  0.00000E+00    0.75955E+02  0.00000E+00  0.00000E+00 -0.17795E+00  0.11159E+00  0.21167E+00
  0.39999E-02  0.76478E+02    0.40000E-02 -0.19132E-02 -0.20868E-02  0.00000E+00  0.00000E+00  0.00000E+00    0.76476E+02  0.00000E+00  0.00000E+00 -0.17881E+00  0.11262E+00  0.21275E+00
  0.49999E-02  0.76996E+02    0.50000E-02 -0.23906E-02 -0.26094E-02  0.00000E+00  0.00000E+00  0.00000E+00    0.76994E+02  0.00000E+00  0.00000E+00 -0.17964E+00  0.11367E+00  0.21374E+00
  0.59999E-02  0.77500E+02    0.60000E-02 -0.28678E-02 -0.31322E-02  0.00000E+00  0.00000E+00  0.00000E+00    0.77499E+02  0.00000E+00  0.00000E+00 -0.17870E+00  0.11547E+00  0.21470E+00
  0.69998E-02  0.78019E+02    0.70000E-02 -0.33451E-02 -0.36549E-02  0.00000E+00  0.00000E+00  0.00000E+00    0.78017E+02  0.00000E+00  0.00000E+00 -0.17945E+00  0.11669E+00  0.21562E+00
  0.79998E-02  0.78527E+02    0.80000E-02 -0.38222E-02 -0.41778E-02  0.00000E+00  0.00000E+00  0.00000E+00    0.78525E+02  0.00000E+00  0.00000E+00 -0.18015E+00  0.11782E+00  0.21649E+00
  0.89998E-02  0.79032E+02    0.90000E-02 -0.42993E-02 -0.47007E-02  0.00000E+00  0.00000E+00  0.00000E+00    0.79030E+02  0.00000E+00  0.00000E+00 -0.18081E+00  0.11897E+00  0.21734E+00
  0.99998E-02  0.79534E+02    0.10000E-01 -0.47764E-02 -0.52236E-02  0.00000E+00  0.00000E+00  0.00000E+00    0.79532E+02  0.00000E+00  0.00000E+00 -0.18143E+00  0.12013E+00  0.21817E+00
  0.11000E-01  0.80033E+02    0.11000E-01 -0.52535E-02 -0.57465E-02  0.00000E+00  0.00000E+00  0.00000E+00    0.80031E+02  0.00000E+00  0.00000E+00 -0.18201E+00  0.12132E+00  0.21898E+00
  0.12000E-01  0.80528E+02    0.12000E-01 -0.57305E-02 -0.62695E-02  0.00000E+00  0.00000E+00  0.00000E+00    0.80527E+02  0.00000E+00  0.00000E+00 -0.18256E+00  0.12252E+00  0.21978E+00
  0.13000E-01  0.81021E+02    0.13000E-01 -0.62075E-02 -0.67925E-02  0.00000E+00  0.00000E+00  0.00000E+00    0.81019E+02  0.00000E+00  0.00000E+00 -0.18307E+00  0.12375E+00  0.22056E+00
  0.14000E-01  0.81511E+02    0.14000E-01 -0.66845E-02 -0.73155E-02  0.00000E+00  0.00000E+00  0.00000E+00    0.81509E+02  0.00000E+00  0.00000E+00 -0.18355E+00  0.12499E+00  0.22134E+00
  0.15000E-01  0.81998E+02    0.15000E-01 -0.71614E-02 -0.78386E-02  0.00000E+00  0.00000E+00  0.00000E+00    0.81996E+02  0.00000E+00  0.00000E+00 -0.18398E+00  0.12625E+00  0.22210E+00
  0.16000E-01  0.82481E+02    0.16000E-01 -0.76384E-02 -0.83616E-02  0.00000E+00  0.00000E+00  0.00000E+00    0.82480E+02  0.00000E+00  0.00000E+00 -0.18439E+00  0.12753E+00  0.22286E+00
  0.17000E-01  0.82962E+02    0.17000E-01 -0.81153E-02 -0.88847E-02  0.00000E+00  0.00000E+00  0.00000E+00    0.82961E+02  0.00000E+00  0.00000E+00 -0.18475E+00  0.12883E+00  0.22360E+00
  0.18000E-01  0.83440E+02    0.18000E-01 -0.85922E-02 -0.94078E-02  0.00000E+00  0.00000E+00  0.00000E+00    0.83438E+02  0.00000E+00  0.00000E+00 -0.18509E+00  0.13015E+00  0.22434E+00
  0.19000E-01  0.83915E+02    0.19000E-01 -0.90690E-02 -0.99310E-02  0.00000E+00  0.00000E+00  0.00000E+00    0.83914E+02  0.00000E+00  0.00000E+00 -0.18538E+00  0.13149E+00  0.22506E+00
  0.20000E-01  0.84388E+02    0.20000E-01 -0.95459E-02 -0.10454E-01  0.00000E+00  0.00000E+00  0.00000E+00    0.84386E+02  0.00000E+00  0.00000E+00 -0.18565E+00  0.13285E+00  0.22577E+00
  0.21000E-01  0.84857E+02    0.21000E-01 -0.10023E-01 -0.10977E-01  0.00000E+00  0.00000E+00  0.00000E+00    0.84855E+02  0.00000E+00  0.00000E+00 -0.18588E+00  0.13422E+00  0.22648E+00
  0.22000E-01  0.85324E+02    0.22000E-01 -0.10500E-01 -0.11500E-01  0.00000E+00  0.00000E+00  0.00000E+00    0.85322E+02  0.00000E+00  0.00000E+00 -0.18607E+00  0.13562E+00  0.22717E+00
  0.22999E-01  0.85787E+02    0.23000E-01 -0.10976E-01 -0.12024E-01  0.00000E+00  0.00000E+00  0.00000E+00    0.85785E+02  0.00000E+00  0.00000E+00 -0.18624E+00  0.13703E+00  0.22786E+00
  0.23999E-01  0.86248E+02    0.24000E-01 -0.11453E-01 -0.12547E-01  0.00000E+00  0.00000E+00  0.00000E+00    0.86247E+02  0.00000E+00  0.00000E+00 -0.18637E+00  0.13846E+00  0.22854E+00
  0.24999E-01  0.86707E+02    0.25000E-01 -0.11930E-01 -0.13070E-01  0.00000E+00  0.00000E+00  0.00000E+00    0.86705E+02  0.00000E+00  0.00000E+00 -0.18646E+00  0.13990E+00  0.22921E+00
  0.25999E-01  0.87162E+02    0.26000E-01 -0.12406E-01 -0.13594E-01  0.00000E+00  0.00000E+00  0.00000E+00    0.87160E+02  0.00000E+00  0.00000E+00 -0.18653E+00  0.14137E+00  0.22988E+00
  0.26999E-01  0.87615E+02    0.27000E-01 -0.12883E-01 -0.14117E-01  0.00000E+00  0.00000E+00  0.00000E+00    0.87613E+02  0.00000E+00  0.00000E+00 -0.18656E+00  0.14286E+00  0.23053E+00
  0.27999E-01  0.88065E+02    0.28000E-01 -0.13360E-01 -0.14640E-01  0.00000E+00  0.00000E+00  0.00000E+00    0.88063E+02  0.00000E+00  0.00000E+00 -0.18656E+00  0.14436E+00  0.23118E+00
  0.28999E-01  0.88513E+02    0.29000E-01 -0.13836E-01 -0.15164E-01  0.00000E+00  0.00000E+00  0.00000E+00    0.88511E+02  0.00000E+00  0.00000E+00 -0.18653E+00  0.14588E+00  0.23183E+00
  0.29999E-01  0.88957E+02    0.30000E-01 -0.14313E-01 -0.15687E-01  0.00000E+00  0.00000E+00  0.00000E+00    0.88956E+02  0.00000E+00  0.00000E+00 -0.18647E+00  0.14741E+00  0.23246E+00
  0.30999E-01  0.89400E+02    0.31000E-01 -0.14790E-01 -0.16210E-01  0.00000E+00  0.00000E+00  0.00000E+00    0.89398E+02  0.00000E+00  0.00000E+00 -0.18638E+00  0.14896E+00  0.23309E+00
  0.31999E-01  0.89839E+02    0.32000E-01 -0.15266E-01 -0.16734E-01  0.00000E+00  0.00000E+00  0.00000E+00    0.89837E+02  0.00000E+00  0.00000E+00 -0.18625E+00  0.15053E+00  0.23372E+00
  0.32999E-01  0.90276E+02    0.33000E-01 -0.15743E-01 -0.17257E-01  0.00000E+00  0.00000E+00  0.00000E+00    0.90274E+02  0.00000E+00  0.00000E+00 -0.18610E+00  0.15212E+00  0.23434E+00
  0.33999E-01  0.90711E+02    0.34000E-01 -0.16219E-01 -0.17781E-01  0.00000E+00  0.00000E+00  0.00000E+00    0.90709E+02  0.00000E+00  0.00000E+00 -0.18592E+00  0.15372E+00  0.23495E+00
  0.34999E-01  0.91143E+02    0.35000E-01 -0.16696E-01 -0.18304E-01  0.00000E+00  0.00000E+00  0.00000E+00    0.91141E+02  0.00000E+00  0.00000E+00 -0.18571E+00  0.15534E+00  0.23555E+00
  0.35999E-01  0.91572E+02    0.36000E-01 -0.17172E-01 -0.18828E-01  0.00000E+00  0.00000E+00  0.00000E+00    0.91570E+02  0.00000E+00  0.00000E+00 -0.18547E+00  0.15698E+00  0.23616E+00
  0.36999E-01  0.91999E+02    0.37000E-01 -0.17649E-01 -0.19351E-01  0.00000E+00  0.00000E+00  0.00000E+00    0.91997E+02  0.00000E+00  0.00000E+00 -0.18520E+00  0.15863E+00  0.23675E+00
  0.37999E-01  0.92423E+02    0.38000E-01 -0.18125E-01 -0.19875E-01  0.00000E+00  0.00000E+00  0.00000E+00    0.92421E+02  0.00000E+00  0.00000E+00 -0.18491E+00  0.16030E+00  0.23734E+00
  0.38999E-01  0.92845E+02    0.39000E-01 -0.18601E-01 -0.20399E-01  0.00000E+00  0.00000E+00  0.00000E+00    0.92843E+02  0.00000E+00  0.00000E+00 -0.18458E+00  0.16198E+00  0.23793E+00
  0.39999E-01  0.93265E+02    0.40000E-01 -0.19078E-01 -0.20922E-01  0.00000E+00  0.00000E+00  0.00000E+00    0.93263E+02  0.00000E+00  0.00000E+00 -0.18423E+00  0.16368E+00  0.23851E+00
  0.40999E-01  0.93682E+02    0.41000E-01 -0.19554E-01 -0.21446E-01  0.00000E+00  0.00000E+00  0.00000E+00    0.93680E+02  0.00000E+00  0.00000E+00 -0.18385E+00  0.16540E+00  0.23908E+00
  0.41999E-01  0.94097E+02    0.42000E-01 -0.20030E-01 -0.21970E-01  0.00000E+00  0.00000E+00  0.00000E+00    0.94095E+02  0.00000E+00  0.00000E+00 -0.18345E+00  0.16713E+00  0.23965E+00
  0.42999E-01  0.94509E+02    0.43000E-01 -0.20507E-01 -0.22493E-01  0.00000E+00  0.00000E+00  0.00000E+00    0.94507E+02  0.00000E+00  0.00000E+00 -0.18301E+00  0.16887E+00  0.24022E+00
  0.43999E-01  0.94889E+02    0.44000E-01 -0.20983E-01 -0.23017E-01  0.00000E+00  0.00000E+00  0.00000E+00    0.94887E+02  0.00000E+00  0.00000E+00 -0.18526E+00  0.16923E+00  0.24079E+00
  0.44999E-01  0.95323E+02    0.45000E-01 -0.21459E-01 -0.23541E-01  0.00000E+00  0.00000E+00  0.00000E+00    0.95321E+02  0.00000E+00  0.00000E+00 -0.18226E+00  0.17228E+00  0.24132E+00
  0.45999E-01  0.95701E+02    0.46000E-01 -0.21935E-01 -0.24065E-01  0.00000E+00  0.00000E+00  0.00000E+00    0.95700E+02  0.00000E+00  0.00000E+00 -0.18428E+00  0.17275E+00  0.24192E+00
  0.46999E-01  0.96106E+02    0.47000E-01 -0.22412E-01 -0.24588E-01  0.00000E+00  0.00000E+00  0.00000E+00    0.96104E+02  0.00000E+00  0.00000E+00 -0.18381E+00  0.17447E+00  0.24248E+00
  0.47999E-01  0.96507E+02    0.48000E-01 -0.22888E-01 -0.25112E-01  0.00000E+00  0.00000E+00  0.00000E+00    0.96505E+02  0.00000E+00  0.00000E+00 -0.18326E+00  0.17626E+00  0.24303E+00
  0.48999E-01  0.96905E+02    0.49000E-01 -0.23364E-01 -0.25636E-01  0.00000E+00  0.00000E+00  0.00000E+00    0.96903E+02  0.00000E+00  0.00000E+00 -0.18268E+00  0.17808E+00  0.24359E+00
  0.49999E-01  0.97302E+02    0.50000E-01 -0.23840E-01 -0.26160E-01  0.00000E+00  0.00000E+00  0.00000E+00    0.97300E+02  0.00000E+00  0.00000E+00 -0.18207E+00  0.17990E+00  0.24413E+00
  0.50999E-01  0.97696E+02    0.51000E-01 -0.24316E-01 -0.26684E-01  0.00000E+00  0.00000E+00  0.00000E+00    0.97694E+02  0.00000E+00  0.00000E+00 -0.18144E+00  0.18174E+00  0.24468E+00
  0.51999E-01  0.98088E+02    0.52000E-01 -0.24792E-01 -0.27208E-01  0.00000E+00  0.00000E+00  0.00000E+00    0.98086E+02  0.00000E+00  0.00000E+00 -0.18078E+00  0.18360E+00  0.24523E+00
  0.52999E-01  0.98477E+02    0.53000E-01 -0.25268E-01 -0.27732E-01  0.00000E+00  0.00000E+00  0.00000E+00    0.98475E+02  0.00000E+00  0.00000E+00 -0.18010E+00  0.18547E+00  0.24577E+00
  0.53999E-01  0.98865E+02    0.54000E-01 -0.25744E-01 -0.28256E-01  0.00000E+00  0.00000E+00  0.00000E+00    0.98863E+02  0.00000E+00  0.00000E+00 -0.17940E+00  0.18735E+00  0.24632E+00
  0.54999E-01  0.99265E+02    0.55000E-01 -0.26220E-01 -0.28780E-01  0.00000E+00  0.00000E+00  0.00000E+00    0.99263E+02  0.00000E+00  0.00000E+00 -0.17611E+00  0.19068E+00  0.24674E+00
  0.55999E-01  0.99631E+02    0.56000E-01 -0.26696E-01 -0.29304E-01  0.00000E+00  0.00000E+00  0.00000E+00    0.99629E+02  0.00000E+00  0.00000E+00 -0.17788E+00  0.19122E+00  0.24740E+00
  0.56999E-01  0.10003E+03    0.57000E-01 -0.27172E-01 -0.29828E-01  0.00000E+00  0.00000E+00  0.00000E+00    0.10003E+03  0.00000E+00  0.00000E+00 -0.17460E+00  0.19454E+00  0.24780E+00
  0.57999E-01  0.10039E+03    0.58000E-01 -0.27648E-01 -0.30352E-01  0.00000E+00  0.00000E+00  0.00000E+00    0.10039E+03  0.00000E+00  0.00000E+00 -0.17631E+00  0.19509E+00  0.24846E+00
  0.58999E-01  0.10076E+03    0.59000E-01 -0.28124E-01 -0.30876E-01  0.00000E+00  0.00000E+00  0.00000E+00    0.10076E+03  0.00000E+00  0.00000E+00 -0.17585E+00  0.19683E+00  0.24898E+00
  0.59999E-01  0.10114E+03    0.60000E-01 -0.28600E-01 -0.31400E-01  0.00000E+00  0.00000E+00  0.00000E+00    0.10114E+03  0.00000E+00  0.00000E+00 -0.17472E+00  0.19892E+00  0.24953E+00
  0.60999E-01  0.10151E+03    0.61000E-01 -0.29075E-01 -0.31925E-01  0.00000E+00  0.00000E+00  0.00000E+00    0.10150E+03  0.00000E+00  0.00000E+00 -0.17415E+00  0.20076E+00  0.25005E+00
  0.61999E-01  0.10189E+03    0.62000E-01 -0.29551E-01 -0.32449E-01  0.00000E+00  0.00000E+00  0.00000E+00    0.10189E+03  0.00000E+00  0.00000E+00 -0.17298E+00  0.20288E+00  0.25059E+00
  0.62999E-01  0.10225E+03    0.63000E-01 -0.30027E-01 -0.32973E-01  0.00000E+00  0.00000E+00  0.00000E+00    0.10224E+03  0.00000E+00  0.00000E+00 -0.17237E+00  0.20475E+00  0.25112E+00
  0.63999E-01  0.10262E+03    0.64000E-01 -0.30503E-01 -0.33497E-01  0.00000E+00  0.00000E+00  0.00000E+00    0.10262E+03  0.00000E+00  0.00000E+00 -0.17115E+00  0.20690E+00  0.25166E+00
  0.64999E-01  0.10298E+03    0.65000E-01 -0.30978E-01 -0.34022E-01  0.00000E+00  0.00000E+00  0.00000E+00    0.10298E+03  0.00000E+00  0.00000E+00 -0.17050E+00  0.20878E+00  0.25218E+00
  0.65999E-01  0.10335E+03    0.66000E-01 -0.31454E-01 -0.34546E-01  0.00000E+00  0.00000E+00  0.00000E+00    0.10335E+03  0.00000E+00  0.00000E+00 -0.16924E+00  0.21096E+00  0.25272E+00
  0.66999E-01  0.10370E+03    0.67000E-01 -0.31930E-01 -0.35070E-01  0.00000E+00  0.00000E+00  0.00000E+00    0.10370E+03  0.00000E+00  0.00000E+00 -0.16855E+00  0.21287E+00  0.25325E+00
  0.67999E-01  0.10407E+03    0.68000E-01 -0.32405E-01 -0.35595E-01  0.00000E+00  0.00000E+00  0.00000E+00    0.10407E+03  0.00000E+00  0.00000E+00 -0.16724E+00  0.21508E+00  0.25379E+00
  0.68999E-01  0.10442E+03    0.69000E-01 -0.32881E-01 -0.36119E-01  0.00000E+00  0.00000E+00  0.00000E+00    0.10441E+03  0.00000E+00  0.00000E+00 -0.16651E+00  0.21702E+00  0.25432E+00
  0.69999E-01  0.10477E+03    0.70000E-01 -0.33357E-01 -0.36643E-01  0.00000E+00  0.00000E+00  0.00000E+00    0.10477E+03  0.00000E+00  0.00000E+00 -0.16552E+00  0.21909E+00  0.25486E+00
  0.70999E-01  0.10512E+03    0.71000E-01 -0.33832E-01 -0.37168E-01  0.00000E+00  0.00000E+00  0.00000E+00    0.10512E+03  0.00000E+00  0.00000E+00 -0.16446E+00  0.22119E+00  0.25540E+00
  0.71999E-01  0.10547E+03    0.72000E-01 -0.34308E-01 -0.37692E-01  0.00000E+00  0.00000E+00  0.00000E+00    0.10547E+03  0.00000E+00  0.00000E+00 -0.16338E+00  0.22330E+00  0.25594E+00
  0.72998E-01  0.10582E+03    0.73000E-01 -0.34783E-01 -0.38217E-01  0.00000E+00  0.00000E+00  0.00000E+00    0.10582E+03  0.00000E+00  0.00000E+00 -0.16227E+00  0.22543E+00  0.25649E+00
  0.73998E-01  0.10617E+03    0.74000E-01 -0.35259E-01 -0.38741E-01  0.00000E+00  0.00000E+00  0.00000E+00    0.10617E+03  0.00000E+00  0.00000E+00 -0.16115E+00  0.22757E+00  0.25703E+00
  0.74998E-01  0.10651E+03    0.75000E-01 -0.35734E-01 -0.39266E-01  0.00000E+00  0.00000E+00  0.00000E+00    0.10651E+03  0.00000E+00  0.00000E+00 -0.16001E+00  0.22972E+00  0.25758E+00
  0.75998E-01  0.10686E+03    0.76000E-01 -0.36210E-01 -0.39790E-01  0.00000E+00  0.00000E+00  0.00000E+00    0.10686E+03  0.00000E+00  0.00000E+00 -0.15884E+00  0.23189E+00  0.25814E+00
  0.76998E-01  0.10720E+03    0.77000E-01 -0.36685E-01 -0.40315E-01  0.00000E+00  0.00000E+00  0.00000E+00    0.10720E+03  0.00000E+00  0.00000E+00 -0.15767E+00  0.23407E+00  0.25869E+00
  0.77998E-01  0.10754E+03    0.78000E-01 -0.37160E-01 -0.40840E-01  0.00000E+00  0.00000E+00  0.00000E+00    0.10754E+03  0.00000E+00  0.00000E+00 -0.15647E+00  0.23627E+00  0.25925E+00
  0.78998E-01  0.10788E+03    0.79000E-01 -0.37636E-01 -0.41364E-01  0.00000E+00  0.00000E+00  0.00000E+00    0.10788E+03  0.00000E+00  0.00000E+00 -0.15525E+00  0.23848E+00  0.25981E+00
  0.79998E-01  0.10821E+03    0.80000E-01 -0.38111E-01 -0.41889E-01  0.00000E+00  0.00000E+00  0.00000E+00    0.10821E+03  0.00000E+00  0.00000E+00 -0.15402E+00  0.24070E+00  0.26038E+00
  0.80998E-01  0.10855E+03    0.81000E-01 -0.38586E-01 -0.42414E-01  0.00000E+00  0.00000E+00  0.00000E+00    0.10855E+03  0.00000E+00  0.00000E+00 -0.15277E+00  0.24293E+00  0.26096E+00
  0.81998E-01  0.10888E+03    0.82000E-01 -0.39061E-01 -0.42939E-01  0.00000E+00  0.00000E+00  0.00000E+00    0.10888E+03  0.00000E+00  0.00000E+00 -0.15150E+00  0.24518E+00  0.26154E+00
  0.82998E-01  0.10921E+03    0.83000E-01 -0.39537E-01 -0.43463E-01  0.00000E+00  0.00000E+00  0.00000E+00    0.10921E+03  0.00000E+00  0.00000E+00 -0.15022E+00  0.24745E+00  0.26212E+00
  0.83998E-01  0.10954E+03    0.84000E-01 -0.40012E-01 -0.43988E-01  0.00000E+00  0.00000E+00  0.00000E+00    0.10954E+03  0.00000E+00  0.00000E+00 -0.14287E+00  0.25257E+00  0.26274E+00
  0.84998E-01  0.10985E+03    0.85000E-01 -0.40487E-01 -0.44513E-01  0.00000E+00  0.00000E+00  0.00000E+00    0.10985E+03  0.00000E+00  0.00000E+00 -0.14313E+00  0.25451E+00  0.26343E+00
  0.85998E-01  0.11017E+03    0.86000E-01 -0.40962E-01 -0.45038E-01  0.00000E+00  0.00000E+00  0.00000E+00    0.11017E+03  0.00000E+00  0.00000E+00 -0.14155E+00  0.25690E+00  0.26405E+00
  0.86998E-01  0.11049E+03    0.87000E-01 -0.41437E-01 -0.45563E-01  0.00000E+00  0.00000E+00  0.00000E+00    0.11049E+03  0.00000E+00  0.00000E+00 -0.14020E+00  0.25924E+00  0.26467E+00
  0.87998E-01  0.11082E+03    0.88000E-01 -0.41912E-01 -0.46088E-01  0.00000E+00  0.00000E+00  0.00000E+00    0.11081E+03  0.00000E+00  0.00000E+00 -0.13883E+00  0.26159E+00  0.26529E+00
  0.88998E-01  0.11114E+03    0.89000E-01 -0.42387E-01 -0.46613E-01  0.00000E+00  0.00000E+00  0.00000E+00    0.11114E+03  0.00000E+00  0.00000E+00 -0.13745E+00  0.26396E+00  0.26592E+00
  0.89998E-01  0.11150E+03    0.90000E-01 -0.42863E-01 -0.47137E-01  0.00000E+00  0.00000E+00  0.00000E+00    0.11150E+03  0.00000E+00  0.00000E+00 -0.13466E+00  0.26693E+00  0.26648E+00
  0.90998E-01  0.11182E+03    0.91000E-01 -0.43338E-01 -0.47662E-01  0.00000E+00  0.00000E+00  0.00000E+00    0.11182E+03  0.00000E+00  0.00000E+00 -0.13360E+00  0.26925E+00  0.26710E+00
  0.91998E-01  0.11214E+03    0.92000E-01 -0.43813E-01 -0.48187E-01  0.00000E+00  0.00000E+00  0.00000E+00    0.11214E+03  0.00000E+00  0.00000E+00 -0.13217E+00  0.27166E+00  0.26775E+00
  0.92998E-01  0.11246E+03    0.93000E-01 -0.44287E-01 -0.48713E-01  0.00000E+00  0.00000E+00  0.00000E+00    0.11245E+03  0.00000E+00  0.00000E+00 -0.13072E+00  0.27410E+00  0.26841E+00
  0.93998E-01  0.11277E+03    0.94000E-01 -0.44762E-01 -0.49238E-01  0.00000E+00  0.00000E+00  0.00000E+00    0.11277E+03  0.00000E+00  0.00000E+00 -0.12926E+00  0.27655E+00  0.26908E+00
  0.94998E-01  0.11308E+03    0.95000E-01 -0.45237E-01 -0.49763E-01  0.00000E+00  0.00000E+00  0.00000E+00    0.11308E+03  0.00000E+00  0.00000E+00 -0.12779E+00  0.27901E+00  0.26976E+00
  0.95998E-01  0.11339E+03    0.96000E-01 -0.45712E-01 -0.50288E-01  0.00000E+00  0.00000E+00  0.00000E+00    0.11339E+03  0.00000E+00  0.00000E+00 -0.12630E+00  0.28149E+00  0.27045E+00
  0.96998E-01  0.11370E+03    0.97000E-01 -0.46187E-01 -0.50813E-01  0.00000E+00  0.00000E+00  0.00000E+00    0.11369E+03  0.00000E+00  0.00000E+00 -0.12480E+00  0.28399E+00  0.27115E+00
  0.97998E-01  0.11400E+03    0.98000E-01 -0.46662E-01 -0.51338E-01  0.00000E+00  0.00000E+00  0.00000E+00    0.11400E+03  0.00000E+00  0.00000E+00 -0.12328E+00  0.28650E+00  0.27186E+00
  0.98998E-01  0.11431E+03    0.99000E-01 -0.47137E-01 -0.51863E-01  0.00000E+00  0.00000E+00  0.00000E+00    0.11431E+03  0.00000E+00  0.00000E+00 -0.12175E+00  0.28903E+00  0.27259E+00
  0.99998E-01  0.11461E+03    0.10000E+00 -0.47611E-01 -0.52389E-01  0.00000E+00  0.00000E+00  0.00000E+00    0.11461E+03  0.00000E+00  0.00000E+00 -0.12021E+00  0.29157E+00  0.27332E+00
