          Evm          Svm            E11          E22          E33          E23          E13          E12         SCAU11       SCAU22       SCAU33       SCAU23       SCAU13       SCAU12      TEMP
  0.00000E+00  0.78064E+02    0.00000E+00  0.00000E+00  0.00000E+00  0.00000E+00  0.00000E+00  0.00000E+00    0.78062E+02  0.00000E+00  0.00000E+00 -0.18105E+00  0.11225E+00  0.21570E+00
  0.99998E-03  0.78565E+02    0.10000E-02 -0.47967E-03 -0.52033E-03  0.00000E+00  0.00000E+00  0.00000E+00    0.78563E+02  0.00000E+00  0.00000E+00 -0.18502E+00  0.11494E+00  0.21855E+00
  0.20000E-02  0.79038E+02    0.20000E-02 -0.95784E-03 -0.10422E-02  0.00000E+00  0.00000E+00  0.00000E+00    0.79037E+02  0.00000E+00  0.00000E+00 -0.18531E+00  0.11586E+00  0.22044E+00
  0.29999E-02  0.79561E+02    0.30000E-02 -0.14356E-02 -0.15644E-02  0.00000E+00  0.00000E+00  0.00000E+00    0.79559E+02  0.00000E+00  0.00000E+00 -0.18627E+00  0.11689E+00  0.22173E+00
  0.39999E-02  0.80074E+02    0.40000E-02 -0.19132E-02 -0.20868E-02  0.00000E+00  0.00000E+00  0.00000E+00    0.80072E+02  0.00000E+00  0.00000E+00 -0.18539E+00  0.11868E+00  0.22277E+00
  0.49999E-02  0.80598E+02    0.50000E-02 -0.23906E-02 -0.26094E-02  0.00000E+00  0.00000E+00  0.00000E+00    0.80597E+02  0.00000E+00  0.00000E+00 -0.18619E+00  0.11986E+00  0.22381E+00
  0.59999E-02  0.81113E+02    0.60000E-02 -0.28679E-02 -0.31321E-02  0.00000E+00  0.00000E+00  0.00000E+00    0.81112E+02  0.00000E+00  0.00000E+00 -0.18695E+00  0.12097E+00  0.22472E+00
  0.69998E-02  0.81625E+02    0.70000E-02 -0.33451E-02 -0.36549E-02  0.00000E+00  0.00000E+00  0.00000E+00    0.81623E+02  0.00000E+00  0.00000E+00 -0.18765E+00  0.12210E+00  0.22560E+00
  0.79998E-02  0.82133E+02    0.80000E-02 -0.38223E-02 -0.41777E-02  0.00000E+00  0.00000E+00  0.00000E+00    0.82131E+02  0.00000E+00  0.00000E+00 -0.18832E+00  0.12325E+00  0.22646E+00
  0.89998E-02  0.82638E+02    0.90000E-02 -0.42994E-02 -0.47006E-02  0.00000E+00  0.00000E+00  0.00000E+00    0.82636E+02  0.00000E+00  0.00000E+00 -0.18894E+00  0.12441E+00  0.22729E+00
  0.99998E-02  0.83140E+02    0.10000E-01 -0.47765E-02 -0.52235E-02  0.00000E+00  0.00000E+00  0.00000E+00    0.83138E+02  0.00000E+00  0.00000E+00 -0.18953E+00  0.12560E+00  0.22810E+00
  0.11000E-01  0.83639E+02    0.11000E-01 -0.52536E-02 -0.57464E-02  0.00000E+00  0.00000E+00  0.00000E+00    0.83637E+02  0.00000E+00  0.00000E+00 -0.19009E+00  0.12681E+00  0.22890E+00
  0.12000E-01  0.84135E+02    0.12000E-01 -0.57306E-02 -0.62694E-02  0.00000E+00  0.00000E+00  0.00000E+00    0.84133E+02  0.00000E+00  0.00000E+00 -0.19060E+00  0.12804E+00  0.22968E+00
  0.13000E-01  0.84628E+02    0.13000E-01 -0.62076E-02 -0.67924E-02  0.00000E+00  0.00000E+00  0.00000E+00    0.84626E+02  0.00000E+00  0.00000E+00 -0.19108E+00  0.12929E+00  0.23045E+00
  0.14000E-01  0.85117E+02    0.14000E-01 -0.66846E-02 -0.73154E-02  0.00000E+00  0.00000E+00  0.00000E+00    0.85116E+02  0.00000E+00  0.00000E+00 -0.19152E+00  0.13056E+00  0.23120E+00
  0.15000E-01  0.85604E+02    0.15000E-01 -0.71615E-02 -0.78385E-02  0.00000E+00  0.00000E+00  0.00000E+00    0.85602E+02  0.00000E+00  0.00000E+00 -0.19192E+00  0.13185E+00  0.23195E+00
  0.16000E-01  0.86088E+02    0.16000E-01 -0.76385E-02 -0.83615E-02  0.00000E+00  0.00000E+00  0.00000E+00    0.86086E+02  0.00000E+00  0.00000E+00 -0.19229E+00  0.13316E+00  0.23268E+00
  0.17000E-01  0.86569E+02    0.17000E-01 -0.81154E-02 -0.88846E-02  0.00000E+00  0.00000E+00  0.00000E+00    0.86567E+02  0.00000E+00  0.00000E+00 -0.19262E+00  0.13448E+00  0.23340E+00
  0.18000E-01  0.87047E+02    0.18000E-01 -0.85922E-02 -0.94078E-02  0.00000E+00  0.00000E+00  0.00000E+00    0.87045E+02  0.00000E+00  0.00000E+00 -0.19292E+00  0.13583E+00  0.23411E+00
  0.19000E-01  0.87523E+02    0.19000E-01 -0.90691E-02 -0.99309E-02  0.00000E+00  0.00000E+00  0.00000E+00    0.87521E+02  0.00000E+00  0.00000E+00 -0.19318E+00  0.13720E+00  0.23482E+00
  0.20000E-01  0.87995E+02    0.20000E-01 -0.95460E-02 -0.10454E-01  0.00000E+00  0.00000E+00  0.00000E+00    0.87993E+02  0.00000E+00  0.00000E+00 -0.19341E+00  0.13858E+00  0.23551E+00
  0.21000E-01  0.88464E+02    0.21000E-01 -0.10023E-01 -0.10977E-01  0.00000E+00  0.00000E+00  0.00000E+00    0.88462E+02  0.00000E+00  0.00000E+00 -0.19360E+00  0.13999E+00  0.23620E+00
  0.22000E-01  0.88931E+02    0.22000E-01 -0.10500E-01 -0.11500E-01  0.00000E+00  0.00000E+00  0.00000E+00    0.88929E+02  0.00000E+00  0.00000E+00 -0.19376E+00  0.14141E+00  0.23687E+00
  0.22999E-01  0.89395E+02    0.23000E-01 -0.10976E-01 -0.12024E-01  0.00000E+00  0.00000E+00  0.00000E+00    0.89393E+02  0.00000E+00  0.00000E+00 -0.19389E+00  0.14286E+00  0.23754E+00
  0.23999E-01  0.89856E+02    0.24000E-01 -0.11453E-01 -0.12547E-01  0.00000E+00  0.00000E+00  0.00000E+00    0.89854E+02  0.00000E+00  0.00000E+00 -0.19398E+00  0.14432E+00  0.23820E+00
  0.24999E-01  0.90314E+02    0.25000E-01 -0.11930E-01 -0.13070E-01  0.00000E+00  0.00000E+00  0.00000E+00    0.90313E+02  0.00000E+00  0.00000E+00 -0.19404E+00  0.14579E+00  0.23885E+00
  0.25999E-01  0.90770E+02    0.26000E-01 -0.12407E-01 -0.13593E-01  0.00000E+00  0.00000E+00  0.00000E+00    0.90768E+02  0.00000E+00  0.00000E+00 -0.19406E+00  0.14729E+00  0.23950E+00
  0.26999E-01  0.91223E+02    0.27000E-01 -0.12883E-01 -0.14117E-01  0.00000E+00  0.00000E+00  0.00000E+00    0.91221E+02  0.00000E+00  0.00000E+00 -0.19405E+00  0.14881E+00  0.24014E+00
  0.27999E-01  0.91673E+02    0.28000E-01 -0.13360E-01 -0.14640E-01  0.00000E+00  0.00000E+00  0.00000E+00    0.91671E+02  0.00000E+00  0.00000E+00 -0.19402E+00  0.15034E+00  0.24077E+00
  0.28999E-01  0.92121E+02    0.29000E-01 -0.13837E-01 -0.15163E-01  0.00000E+00  0.00000E+00  0.00000E+00    0.92119E+02  0.00000E+00  0.00000E+00 -0.19394E+00  0.15189E+00  0.24140E+00
  0.29999E-01  0.92566E+02    0.30000E-01 -0.14313E-01 -0.15687E-01  0.00000E+00  0.00000E+00  0.00000E+00    0.92564E+02  0.00000E+00  0.00000E+00 -0.19384E+00  0.15346E+00  0.24201E+00
  0.30999E-01  0.93008E+02    0.31000E-01 -0.14790E-01 -0.16210E-01  0.00000E+00  0.00000E+00  0.00000E+00    0.93006E+02  0.00000E+00  0.00000E+00 -0.19371E+00  0.15505E+00  0.24262E+00
  0.31999E-01  0.93448E+02    0.32000E-01 -0.15266E-01 -0.16734E-01  0.00000E+00  0.00000E+00  0.00000E+00    0.93446E+02  0.00000E+00  0.00000E+00 -0.19354E+00  0.15665E+00  0.24323E+00
  0.32999E-01  0.93885E+02    0.33000E-01 -0.15743E-01 -0.17257E-01  0.00000E+00  0.00000E+00  0.00000E+00    0.93883E+02  0.00000E+00  0.00000E+00 -0.19335E+00  0.15827E+00  0.24383E+00
  0.33999E-01  0.94320E+02    0.34000E-01 -0.16219E-01 -0.17781E-01  0.00000E+00  0.00000E+00  0.00000E+00    0.94318E+02  0.00000E+00  0.00000E+00 -0.19313E+00  0.15991E+00  0.24442E+00
  0.34999E-01  0.94752E+02    0.35000E-01 -0.16696E-01 -0.18304E-01  0.00000E+00  0.00000E+00  0.00000E+00    0.94750E+02  0.00000E+00  0.00000E+00 -0.19287E+00  0.16156E+00  0.24501E+00
  0.35999E-01  0.95181E+02    0.36000E-01 -0.17172E-01 -0.18828E-01  0.00000E+00  0.00000E+00  0.00000E+00    0.95179E+02  0.00000E+00  0.00000E+00 -0.19259E+00  0.16323E+00  0.24559E+00
  0.36999E-01  0.95608E+02    0.37000E-01 -0.17649E-01 -0.19351E-01  0.00000E+00  0.00000E+00  0.00000E+00    0.95606E+02  0.00000E+00  0.00000E+00 -0.19228E+00  0.16492E+00  0.24617E+00
  0.37999E-01  0.96033E+02    0.38000E-01 -0.18125E-01 -0.19875E-01  0.00000E+00  0.00000E+00  0.00000E+00    0.96031E+02  0.00000E+00  0.00000E+00 -0.19194E+00  0.16663E+00  0.24674E+00
  0.38999E-01  0.96455E+02    0.39000E-01 -0.18601E-01 -0.20399E-01  0.00000E+00  0.00000E+00  0.00000E+00    0.96453E+02  0.00000E+00  0.00000E+00 -0.19157E+00  0.16835E+00  0.24731E+00
  0.39999E-01  0.96843E+02    0.40000E-01 -0.19078E-01 -0.20922E-01  0.00000E+00  0.00000E+00  0.00000E+00    0.96841E+02  0.00000E+00  0.00000E+00 -0.19387E+00  0.16874E+00  0.24786E+00
  0.40999E-01  0.97288E+02    0.41000E-01 -0.19554E-01 -0.21446E-01  0.00000E+00  0.00000E+00  0.00000E+00    0.97286E+02  0.00000E+00  0.00000E+00 -0.19093E+00  0.17171E+00  0.24840E+00
  0.41999E-01  0.97675E+02    0.42000E-01 -0.20030E-01 -0.21970E-01  0.00000E+00  0.00000E+00  0.00000E+00    0.97673E+02  0.00000E+00  0.00000E+00 -0.19302E+00  0.17221E+00  0.24899E+00
  0.42999E-01  0.98089E+02    0.43000E-01 -0.20507E-01 -0.22493E-01  0.00000E+00  0.00000E+00  0.00000E+00    0.98087E+02  0.00000E+00  0.00000E+00 -0.19261E+00  0.17390E+00  0.24954E+00
  0.43999E-01  0.98499E+02    0.44000E-01 -0.20983E-01 -0.23017E-01  0.00000E+00  0.00000E+00  0.00000E+00    0.98497E+02  0.00000E+00  0.00000E+00 -0.19211E+00  0.17568E+00  0.25009E+00
  0.44999E-01  0.98907E+02    0.45000E-01 -0.21459E-01 -0.23541E-01  0.00000E+00  0.00000E+00  0.00000E+00    0.98905E+02  0.00000E+00  0.00000E+00 -0.19159E+00  0.17747E+00  0.25064E+00
  0.45999E-01  0.99313E+02    0.46000E-01 -0.21935E-01 -0.24065E-01  0.00000E+00  0.00000E+00  0.00000E+00    0.99311E+02  0.00000E+00  0.00000E+00 -0.19104E+00  0.17928E+00  0.25119E+00
  0.46999E-01  0.99716E+02    0.47000E-01 -0.22412E-01 -0.24588E-01  0.00000E+00  0.00000E+00  0.00000E+00    0.99714E+02  0.00000E+00  0.00000E+00 -0.19046E+00  0.18111E+00  0.25173E+00
  0.47999E-01  0.10012E+03    0.48000E-01 -0.22888E-01 -0.25112E-01  0.00000E+00  0.00000E+00  0.00000E+00    0.10011E+03  0.00000E+00  0.00000E+00 -0.18985E+00  0.18295E+00  0.25227E+00
  0.48999E-01  0.10052E+03    0.49000E-01 -0.23364E-01 -0.25636E-01  0.00000E+00  0.00000E+00  0.00000E+00    0.10051E+03  0.00000E+00  0.00000E+00 -0.18922E+00  0.18480E+00  0.25281E+00
  0.49999E-01  0.10093E+03    0.50000E-01 -0.23840E-01 -0.26160E-01  0.00000E+00  0.00000E+00  0.00000E+00    0.10093E+03  0.00000E+00  0.00000E+00 -0.18599E+00  0.18805E+00  0.25325E+00
  0.50999E-01  0.10130E+03    0.51000E-01 -0.24316E-01 -0.26684E-01  0.00000E+00  0.00000E+00  0.00000E+00    0.10130E+03  0.00000E+00  0.00000E+00 -0.18784E+00  0.18861E+00  0.25388E+00
  0.51999E-01  0.10172E+03    0.52000E-01 -0.24792E-01 -0.27208E-01  0.00000E+00  0.00000E+00  0.00000E+00    0.10171E+03  0.00000E+00  0.00000E+00 -0.18462E+00  0.19185E+00  0.25430E+00
  0.52999E-01  0.10209E+03    0.53000E-01 -0.25268E-01 -0.27732E-01  0.00000E+00  0.00000E+00  0.00000E+00    0.10208E+03  0.00000E+00  0.00000E+00 -0.18641E+00  0.19242E+00  0.25494E+00
  0.53999E-01  0.10249E+03    0.54000E-01 -0.25744E-01 -0.28256E-01  0.00000E+00  0.00000E+00  0.00000E+00    0.10249E+03  0.00000E+00  0.00000E+00 -0.18314E+00  0.19572E+00  0.25535E+00
  0.54999E-01  0.10286E+03    0.55000E-01 -0.26220E-01 -0.28780E-01  0.00000E+00  0.00000E+00  0.00000E+00    0.10286E+03  0.00000E+00  0.00000E+00 -0.18488E+00  0.19629E+00  0.25599E+00
  0.55999E-01  0.10323E+03    0.56000E-01 -0.26696E-01 -0.29304E-01  0.00000E+00  0.00000E+00  0.00000E+00    0.10323E+03  0.00000E+00  0.00000E+00 -0.18444E+00  0.19804E+00  0.25650E+00
  0.56999E-01  0.10363E+03    0.57000E-01 -0.27172E-01 -0.29828E-01  0.00000E+00  0.00000E+00  0.00000E+00    0.10362E+03  0.00000E+00  0.00000E+00 -0.18333E+00  0.20013E+00  0.25703E+00
  0.57999E-01  0.10399E+03    0.58000E-01 -0.27648E-01 -0.30352E-01  0.00000E+00  0.00000E+00  0.00000E+00    0.10399E+03  0.00000E+00  0.00000E+00 -0.18278E+00  0.20198E+00  0.25754E+00
  0.58999E-01  0.10438E+03    0.59000E-01 -0.28124E-01 -0.30876E-01  0.00000E+00  0.00000E+00  0.00000E+00    0.10438E+03  0.00000E+00  0.00000E+00 -0.18162E+00  0.20410E+00  0.25808E+00
  0.59999E-01  0.10475E+03    0.60000E-01 -0.28600E-01 -0.31400E-01  0.00000E+00  0.00000E+00  0.00000E+00    0.10474E+03  0.00000E+00  0.00000E+00 -0.18103E+00  0.20597E+00  0.25858E+00
  0.60999E-01  0.10513E+03    0.61000E-01 -0.29075E-01 -0.31925E-01  0.00000E+00  0.00000E+00  0.00000E+00    0.10513E+03  0.00000E+00  0.00000E+00 -0.17982E+00  0.20812E+00  0.25912E+00
  0.61999E-01  0.10549E+03    0.62000E-01 -0.29551E-01 -0.32449E-01  0.00000E+00  0.00000E+00  0.00000E+00    0.10549E+03  0.00000E+00  0.00000E+00 -0.17918E+00  0.21002E+00  0.25963E+00
  0.62999E-01  0.10587E+03    0.63000E-01 -0.30027E-01 -0.32973E-01  0.00000E+00  0.00000E+00  0.00000E+00    0.10587E+03  0.00000E+00  0.00000E+00 -0.17794E+00  0.21220E+00  0.26015E+00
  0.63999E-01  0.10623E+03    0.64000E-01 -0.30503E-01 -0.33497E-01  0.00000E+00  0.00000E+00  0.00000E+00    0.10622E+03  0.00000E+00  0.00000E+00 -0.17726E+00  0.21412E+00  0.26067E+00
  0.64999E-01  0.10659E+03    0.65000E-01 -0.30978E-01 -0.34022E-01  0.00000E+00  0.00000E+00  0.00000E+00    0.10659E+03  0.00000E+00  0.00000E+00 -0.17632E+00  0.21617E+00  0.26119E+00
  0.65999E-01  0.10695E+03    0.66000E-01 -0.31454E-01 -0.34546E-01  0.00000E+00  0.00000E+00  0.00000E+00    0.10695E+03  0.00000E+00  0.00000E+00 -0.17531E+00  0.21825E+00  0.26171E+00
  0.66999E-01  0.10731E+03    0.67000E-01 -0.31930E-01 -0.35070E-01  0.00000E+00  0.00000E+00  0.00000E+00    0.10731E+03  0.00000E+00  0.00000E+00 -0.17427E+00  0.22035E+00  0.26223E+00
  0.67999E-01  0.10767E+03    0.68000E-01 -0.32405E-01 -0.35595E-01  0.00000E+00  0.00000E+00  0.00000E+00    0.10767E+03  0.00000E+00  0.00000E+00 -0.17321E+00  0.22246E+00  0.26275E+00
  0.68999E-01  0.10803E+03    0.69000E-01 -0.32881E-01 -0.36119E-01  0.00000E+00  0.00000E+00  0.00000E+00    0.10803E+03  0.00000E+00  0.00000E+00 -0.17213E+00  0.22458E+00  0.26328E+00
  0.69999E-01  0.10838E+03    0.70000E-01 -0.33357E-01 -0.36643E-01  0.00000E+00  0.00000E+00  0.00000E+00    0.10838E+03  0.00000E+00  0.00000E+00 -0.17104E+00  0.22671E+00  0.26381E+00
  0.70999E-01  0.10874E+03    0.71000E-01 -0.33832E-01 -0.37168E-01  0.00000E+00  0.00000E+00  0.00000E+00    0.10874E+03  0.00000E+00  0.00000E+00 -0.16992E+00  0.22886E+00  0.26434E+00
  0.71999E-01  0.10909E+03    0.72000E-01 -0.34308E-01 -0.37692E-01  0.00000E+00  0.00000E+00  0.00000E+00    0.10909E+03  0.00000E+00  0.00000E+00 -0.16878E+00  0.23102E+00  0.26487E+00
  0.72998E-01  0.10944E+03    0.73000E-01 -0.34783E-01 -0.38217E-01  0.00000E+00  0.00000E+00  0.00000E+00    0.10944E+03  0.00000E+00  0.00000E+00 -0.16762E+00  0.23320E+00  0.26540E+00
  0.73998E-01  0.10979E+03    0.74000E-01 -0.35259E-01 -0.38741E-01  0.00000E+00  0.00000E+00  0.00000E+00    0.10978E+03  0.00000E+00  0.00000E+00 -0.16645E+00  0.23539E+00  0.26594E+00
  0.74998E-01  0.11013E+03    0.75000E-01 -0.35734E-01 -0.39266E-01  0.00000E+00  0.00000E+00  0.00000E+00    0.11013E+03  0.00000E+00  0.00000E+00 -0.16525E+00  0.23759E+00  0.26648E+00
  0.75998E-01  0.11047E+03    0.76000E-01 -0.36209E-01 -0.39791E-01  0.00000E+00  0.00000E+00  0.00000E+00    0.11047E+03  0.00000E+00  0.00000E+00 -0.16404E+00  0.23980E+00  0.26702E+00
  0.76998E-01  0.11082E+03    0.77000E-01 -0.36685E-01 -0.40315E-01  0.00000E+00  0.00000E+00  0.00000E+00    0.11081E+03  0.00000E+00  0.00000E+00 -0.16281E+00  0.24203E+00  0.26757E+00
  0.77998E-01  0.11116E+03    0.78000E-01 -0.37160E-01 -0.40840E-01  0.00000E+00  0.00000E+00  0.00000E+00    0.11116E+03  0.00000E+00  0.00000E+00 -0.16156E+00  0.24427E+00  0.26812E+00
  0.78998E-01  0.11150E+03    0.79000E-01 -0.37635E-01 -0.41365E-01  0.00000E+00  0.00000E+00  0.00000E+00    0.11149E+03  0.00000E+00  0.00000E+00 -0.16029E+00  0.24653E+00  0.26868E+00
  0.79998E-01  0.11183E+03    0.80000E-01 -0.38111E-01 -0.41889E-01  0.00000E+00  0.00000E+00  0.00000E+00    0.11183E+03  0.00000E+00  0.00000E+00 -0.15900E+00  0.24880E+00  0.26924E+00
  0.80998E-01  0.11217E+03    0.81000E-01 -0.38586E-01 -0.42414E-01  0.00000E+00  0.00000E+00  0.00000E+00    0.11217E+03  0.00000E+00  0.00000E+00 -0.15164E+00  0.25389E+00  0.26984E+00
  0.81998E-01  0.11248E+03    0.82000E-01 -0.39061E-01 -0.42939E-01  0.00000E+00  0.00000E+00  0.00000E+00    0.11248E+03  0.00000E+00  0.00000E+00 -0.15190E+00  0.25585E+00  0.27049E+00
  0.82998E-01  0.11281E+03    0.83000E-01 -0.39537E-01 -0.43463E-01  0.00000E+00  0.00000E+00  0.00000E+00    0.11280E+03  0.00000E+00  0.00000E+00 -0.15032E+00  0.25825E+00  0.27109E+00
  0.83998E-01  0.11313E+03    0.84000E-01 -0.40012E-01 -0.43988E-01  0.00000E+00  0.00000E+00  0.00000E+00    0.11313E+03  0.00000E+00  0.00000E+00 -0.14896E+00  0.26060E+00  0.27168E+00
  0.84998E-01  0.11346E+03    0.85000E-01 -0.40487E-01 -0.44513E-01  0.00000E+00  0.00000E+00  0.00000E+00    0.11346E+03  0.00000E+00  0.00000E+00 -0.14758E+00  0.26296E+00  0.27228E+00
  0.85998E-01  0.11383E+03    0.86000E-01 -0.40962E-01 -0.45038E-01  0.00000E+00  0.00000E+00  0.00000E+00    0.11383E+03  0.00000E+00  0.00000E+00 -0.14482E+00  0.26590E+00  0.27281E+00
  0.86998E-01  0.11416E+03    0.87000E-01 -0.41437E-01 -0.45563E-01  0.00000E+00  0.00000E+00  0.00000E+00    0.11416E+03  0.00000E+00  0.00000E+00 -0.14377E+00  0.26821E+00  0.27339E+00
  0.87998E-01  0.11449E+03    0.88000E-01 -0.41912E-01 -0.46088E-01  0.00000E+00  0.00000E+00  0.00000E+00    0.11449E+03  0.00000E+00  0.00000E+00 -0.14234E+00  0.27062E+00  0.27400E+00
  0.88998E-01  0.11481E+03    0.89000E-01 -0.42387E-01 -0.46613E-01  0.00000E+00  0.00000E+00  0.00000E+00    0.11481E+03  0.00000E+00  0.00000E+00 -0.14090E+00  0.27304E+00  0.27463E+00
  0.89998E-01  0.11513E+03    0.90000E-01 -0.42862E-01 -0.47138E-01  0.00000E+00  0.00000E+00  0.00000E+00    0.11513E+03  0.00000E+00  0.00000E+00 -0.13945E+00  0.27548E+00  0.27526E+00
  0.90998E-01  0.11545E+03    0.91000E-01 -0.43337E-01 -0.47663E-01  0.00000E+00  0.00000E+00  0.00000E+00    0.11544E+03  0.00000E+00  0.00000E+00 -0.13798E+00  0.27794E+00  0.27590E+00
  0.91998E-01  0.11576E+03    0.92000E-01 -0.43812E-01 -0.48188E-01  0.00000E+00  0.00000E+00  0.00000E+00    0.11576E+03  0.00000E+00  0.00000E+00 -0.13649E+00  0.28041E+00  0.27655E+00
  0.92998E-01  0.11608E+03    0.93000E-01 -0.44287E-01 -0.48713E-01  0.00000E+00  0.00000E+00  0.00000E+00    0.11607E+03  0.00000E+00  0.00000E+00 -0.13499E+00  0.28289E+00  0.27720E+00
  0.93998E-01  0.11639E+03    0.94000E-01 -0.44762E-01 -0.49238E-01  0.00000E+00  0.00000E+00  0.00000E+00    0.11639E+03  0.00000E+00  0.00000E+00 -0.13348E+00  0.28539E+00  0.27787E+00
  0.94998E-01  0.11670E+03    0.95000E-01 -0.45237E-01 -0.49763E-01  0.00000E+00  0.00000E+00  0.00000E+00    0.11670E+03  0.00000E+00  0.00000E+00 -0.13195E+00  0.28791E+00  0.27855E+00
  0.95998E-01  0.11701E+03    0.96000E-01 -0.45712E-01 -0.50288E-01  0.00000E+00  0.00000E+00  0.00000E+00    0.11701E+03  0.00000E+00  0.00000E+00 -0.13041E+00  0.29045E+00  0.27924E+00
  0.96998E-01  0.11732E+03    0.97000E-01 -0.46187E-01 -0.50813E-01  0.00000E+00  0.00000E+00  0.00000E+00    0.11732E+03  0.00000E+00  0.00000E+00 -0.12885E+00  0.29300E+00  0.27994E+00
  0.97998E-01  0.11763E+03    0.98000E-01 -0.46662E-01 -0.51338E-01  0.00000E+00  0.00000E+00  0.00000E+00    0.11763E+03  0.00000E+00  0.00000E+00 -0.12728E+00  0.29556E+00  0.28065E+00
  0.98998E-01  0.11793E+03    0.99000E-01 -0.47136E-01 -0.51864E-01  0.00000E+00  0.00000E+00  0.00000E+00    0.11793E+03  0.00000E+00  0.00000E+00 -0.12570E+00  0.29814E+00  0.28137E+00
  0.99998E-01  0.11824E+03    0.10000E+00 -0.47611E-01 -0.52389E-01  0.00000E+00  0.00000E+00  0.00000E+00    0.11823E+03  0.00000E+00  0.00000E+00 -0.12410E+00  0.30074E+00  0.28210E+00
