          Evm          Svm            E11          E22          E33          E23          E13          E12         SCAU11       SCAU22       SCAU33       SCAU23       SCAU13       SCAU12      TEMP
  0.00000E+00  0.73339E+02    0.00000E+00  0.00000E+00  0.00000E+00  0.00000E+00  0.00000E+00  0.00000E+00    0.73337E+02  0.00000E+00  0.00000E+00 -0.17009E+00  0.10545E+00  0.20265E+00
  0.99998E-03  0.73841E+02    0.10000E-02 -0.47967E-03 -0.52033E-03  0.00000E+00  0.00000E+00  0.00000E+00    0.73839E+02  0.00000E+00  0.00000E+00 -0.17404E+00  0.10803E+00  0.20540E+00
  0.20000E-02  0.74314E+02    0.20000E-02 -0.95784E-03 -0.10422E-02  0.00000E+00  0.00000E+00  0.00000E+00    0.74312E+02  0.00000E+00  0.00000E+00 -0.17437E+00  0.10894E+00  0.20725E+00
  0.29999E-02  0.74836E+02    0.30000E-02 -0.14356E-02 -0.15644E-02  0.00000E+00  0.00000E+00  0.00000E+00    0.74835E+02  0.00000E+00  0.00000E+00 -0.17537E+00  0.10995E+00  0.20854E+00
  0.39999E-02  0.75357E+02    0.40000E-02 -0.19132E-02 -0.20868E-02  0.00000E+00  0.00000E+00  0.00000E+00    0.75356E+02  0.00000E+00  0.00000E+00 -0.17624E+00  0.11096E+00  0.20963E+00
  0.49999E-02  0.75875E+02    0.50000E-02 -0.23905E-02 -0.26095E-02  0.00000E+00  0.00000E+00  0.00000E+00    0.75873E+02  0.00000E+00  0.00000E+00 -0.17707E+00  0.11201E+00  0.21062E+00
  0.59999E-02  0.76390E+02    0.60000E-02 -0.28678E-02 -0.31322E-02  0.00000E+00  0.00000E+00  0.00000E+00    0.76388E+02  0.00000E+00  0.00000E+00 -0.17786E+00  0.11309E+00  0.21156E+00
  0.69998E-02  0.76891E+02    0.70000E-02 -0.33451E-02 -0.36549E-02  0.00000E+00  0.00000E+00  0.00000E+00    0.76889E+02  0.00000E+00  0.00000E+00 -0.17689E+00  0.11489E+00  0.21250E+00
  0.79998E-02  0.77406E+02    0.80000E-02 -0.38222E-02 -0.41778E-02  0.00000E+00  0.00000E+00  0.00000E+00    0.77404E+02  0.00000E+00  0.00000E+00 -0.17761E+00  0.11613E+00  0.21338E+00
  0.89998E-02  0.77911E+02    0.90000E-02 -0.42993E-02 -0.47007E-02  0.00000E+00  0.00000E+00  0.00000E+00    0.77909E+02  0.00000E+00  0.00000E+00 -0.17828E+00  0.11728E+00  0.21424E+00
  0.99998E-02  0.78413E+02    0.10000E-01 -0.47764E-02 -0.52236E-02  0.00000E+00  0.00000E+00  0.00000E+00    0.78411E+02  0.00000E+00  0.00000E+00 -0.17891E+00  0.11843E+00  0.21507E+00
  0.11000E-01  0.78912E+02    0.11000E-01 -0.52535E-02 -0.57465E-02  0.00000E+00  0.00000E+00  0.00000E+00    0.78910E+02  0.00000E+00  0.00000E+00 -0.17950E+00  0.11961E+00  0.21589E+00
  0.12000E-01  0.79407E+02    0.12000E-01 -0.57305E-02 -0.62695E-02  0.00000E+00  0.00000E+00  0.00000E+00    0.79406E+02  0.00000E+00  0.00000E+00 -0.18006E+00  0.12081E+00  0.21670E+00
  0.13000E-01  0.79900E+02    0.13000E-01 -0.62075E-02 -0.67925E-02  0.00000E+00  0.00000E+00  0.00000E+00    0.79898E+02  0.00000E+00  0.00000E+00 -0.18058E+00  0.12203E+00  0.21749E+00
  0.14000E-01  0.80390E+02    0.14000E-01 -0.66845E-02 -0.73155E-02  0.00000E+00  0.00000E+00  0.00000E+00    0.80388E+02  0.00000E+00  0.00000E+00 -0.18107E+00  0.12326E+00  0.21828E+00
  0.15000E-01  0.80877E+02    0.15000E-01 -0.71614E-02 -0.78386E-02  0.00000E+00  0.00000E+00  0.00000E+00    0.80875E+02  0.00000E+00  0.00000E+00 -0.18152E+00  0.12451E+00  0.21904E+00
  0.16000E-01  0.81360E+02    0.16000E-01 -0.76384E-02 -0.83616E-02  0.00000E+00  0.00000E+00  0.00000E+00    0.81359E+02  0.00000E+00  0.00000E+00 -0.18193E+00  0.12579E+00  0.21980E+00
  0.17000E-01  0.81841E+02    0.17000E-01 -0.81153E-02 -0.88847E-02  0.00000E+00  0.00000E+00  0.00000E+00    0.81839E+02  0.00000E+00  0.00000E+00 -0.18231E+00  0.12708E+00  0.22055E+00
  0.18000E-01  0.82319E+02    0.18000E-01 -0.85922E-02 -0.94078E-02  0.00000E+00  0.00000E+00  0.00000E+00    0.82317E+02  0.00000E+00  0.00000E+00 -0.18265E+00  0.12839E+00  0.22129E+00
  0.19000E-01  0.82794E+02    0.19000E-01 -0.90690E-02 -0.99310E-02  0.00000E+00  0.00000E+00  0.00000E+00    0.82792E+02  0.00000E+00  0.00000E+00 -0.18296E+00  0.12972E+00  0.22202E+00
  0.20000E-01  0.83266E+02    0.20000E-01 -0.95459E-02 -0.10454E-01  0.00000E+00  0.00000E+00  0.00000E+00    0.83264E+02  0.00000E+00  0.00000E+00 -0.18323E+00  0.13106E+00  0.22275E+00
  0.21000E-01  0.83736E+02    0.21000E-01 -0.10023E-01 -0.10977E-01  0.00000E+00  0.00000E+00  0.00000E+00    0.83734E+02  0.00000E+00  0.00000E+00 -0.18347E+00  0.13243E+00  0.22346E+00
  0.22000E-01  0.84202E+02    0.22000E-01 -0.10500E-01 -0.11500E-01  0.00000E+00  0.00000E+00  0.00000E+00    0.84200E+02  0.00000E+00  0.00000E+00 -0.18368E+00  0.13381E+00  0.22416E+00
  0.22999E-01  0.84666E+02    0.23000E-01 -0.10976E-01 -0.12024E-01  0.00000E+00  0.00000E+00  0.00000E+00    0.84664E+02  0.00000E+00  0.00000E+00 -0.18386E+00  0.13522E+00  0.22485E+00
  0.23999E-01  0.85127E+02    0.24000E-01 -0.11453E-01 -0.12547E-01  0.00000E+00  0.00000E+00  0.00000E+00    0.85125E+02  0.00000E+00  0.00000E+00 -0.18400E+00  0.13664E+00  0.22554E+00
  0.24999E-01  0.85585E+02    0.25000E-01 -0.11930E-01 -0.13070E-01  0.00000E+00  0.00000E+00  0.00000E+00    0.85583E+02  0.00000E+00  0.00000E+00 -0.18411E+00  0.13807E+00  0.22622E+00
  0.25999E-01  0.86041E+02    0.26000E-01 -0.12406E-01 -0.13594E-01  0.00000E+00  0.00000E+00  0.00000E+00    0.86039E+02  0.00000E+00  0.00000E+00 -0.18419E+00  0.13953E+00  0.22688E+00
  0.26999E-01  0.86493E+02    0.27000E-01 -0.12883E-01 -0.14117E-01  0.00000E+00  0.00000E+00  0.00000E+00    0.86492E+02  0.00000E+00  0.00000E+00 -0.18423E+00  0.14101E+00  0.22755E+00
  0.27999E-01  0.86943E+02    0.28000E-01 -0.13360E-01 -0.14640E-01  0.00000E+00  0.00000E+00  0.00000E+00    0.86942E+02  0.00000E+00  0.00000E+00 -0.18425E+00  0.14250E+00  0.22820E+00
  0.28999E-01  0.87391E+02    0.29000E-01 -0.13836E-01 -0.15164E-01  0.00000E+00  0.00000E+00  0.00000E+00    0.87389E+02  0.00000E+00  0.00000E+00 -0.18423E+00  0.14401E+00  0.22885E+00
  0.29999E-01  0.87836E+02    0.30000E-01 -0.14313E-01 -0.15687E-01  0.00000E+00  0.00000E+00  0.00000E+00    0.87834E+02  0.00000E+00  0.00000E+00 -0.18418E+00  0.14553E+00  0.22950E+00
  0.30999E-01  0.88278E+02    0.31000E-01 -0.14790E-01 -0.16210E-01  0.00000E+00  0.00000E+00  0.00000E+00    0.88276E+02  0.00000E+00  0.00000E+00 -0.18410E+00  0.14707E+00  0.23013E+00
  0.31999E-01  0.88717E+02    0.32000E-01 -0.15266E-01 -0.16734E-01  0.00000E+00  0.00000E+00  0.00000E+00    0.88716E+02  0.00000E+00  0.00000E+00 -0.18399E+00  0.14863E+00  0.23076E+00
  0.32999E-01  0.89154E+02    0.33000E-01 -0.15743E-01 -0.17257E-01  0.00000E+00  0.00000E+00  0.00000E+00    0.89153E+02  0.00000E+00  0.00000E+00 -0.18385E+00  0.15021E+00  0.23139E+00
  0.33999E-01  0.89589E+02    0.34000E-01 -0.16219E-01 -0.17781E-01  0.00000E+00  0.00000E+00  0.00000E+00    0.89587E+02  0.00000E+00  0.00000E+00 -0.18368E+00  0.15180E+00  0.23200E+00
  0.34999E-01  0.90021E+02    0.35000E-01 -0.16696E-01 -0.18304E-01  0.00000E+00  0.00000E+00  0.00000E+00    0.90019E+02  0.00000E+00  0.00000E+00 -0.18348E+00  0.15341E+00  0.23262E+00
  0.35999E-01  0.90450E+02    0.36000E-01 -0.17172E-01 -0.18828E-01  0.00000E+00  0.00000E+00  0.00000E+00    0.90448E+02  0.00000E+00  0.00000E+00 -0.18326E+00  0.15503E+00  0.23322E+00
  0.36999E-01  0.90877E+02    0.37000E-01 -0.17649E-01 -0.19351E-01  0.00000E+00  0.00000E+00  0.00000E+00    0.90875E+02  0.00000E+00  0.00000E+00 -0.18300E+00  0.15667E+00  0.23382E+00
  0.37999E-01  0.91301E+02    0.38000E-01 -0.18125E-01 -0.19875E-01  0.00000E+00  0.00000E+00  0.00000E+00    0.91299E+02  0.00000E+00  0.00000E+00 -0.18272E+00  0.15833E+00  0.23442E+00
  0.38999E-01  0.91723E+02    0.39000E-01 -0.18601E-01 -0.20399E-01  0.00000E+00  0.00000E+00  0.00000E+00    0.91721E+02  0.00000E+00  0.00000E+00 -0.18241E+00  0.16000E+00  0.23501E+00
  0.39999E-01  0.92143E+02    0.40000E-01 -0.19078E-01 -0.20922E-01  0.00000E+00  0.00000E+00  0.00000E+00    0.92141E+02  0.00000E+00  0.00000E+00 -0.18207E+00  0.16169E+00  0.23560E+00
  0.40999E-01  0.92560E+02    0.41000E-01 -0.19554E-01 -0.21446E-01  0.00000E+00  0.00000E+00  0.00000E+00    0.92558E+02  0.00000E+00  0.00000E+00 -0.18171E+00  0.16340E+00  0.23618E+00
  0.41999E-01  0.92974E+02    0.42000E-01 -0.20030E-01 -0.21970E-01  0.00000E+00  0.00000E+00  0.00000E+00    0.92973E+02  0.00000E+00  0.00000E+00 -0.18132E+00  0.16511E+00  0.23676E+00
  0.42999E-01  0.93387E+02    0.43000E-01 -0.20507E-01 -0.22493E-01  0.00000E+00  0.00000E+00  0.00000E+00    0.93385E+02  0.00000E+00  0.00000E+00 -0.18090E+00  0.16685E+00  0.23733E+00
  0.43999E-01  0.93797E+02    0.44000E-01 -0.20983E-01 -0.23017E-01  0.00000E+00  0.00000E+00  0.00000E+00    0.93795E+02  0.00000E+00  0.00000E+00 -0.18045E+00  0.16860E+00  0.23790E+00
  0.44999E-01  0.94204E+02    0.45000E-01 -0.21459E-01 -0.23541E-01  0.00000E+00  0.00000E+00  0.00000E+00    0.94202E+02  0.00000E+00  0.00000E+00 -0.17998E+00  0.17036E+00  0.23846E+00
  0.45999E-01  0.94580E+02    0.46000E-01 -0.21935E-01 -0.24065E-01  0.00000E+00  0.00000E+00  0.00000E+00    0.94578E+02  0.00000E+00  0.00000E+00 -0.18219E+00  0.17071E+00  0.23904E+00
  0.46999E-01  0.95009E+02    0.47000E-01 -0.22412E-01 -0.24588E-01  0.00000E+00  0.00000E+00  0.00000E+00    0.95007E+02  0.00000E+00  0.00000E+00 -0.17915E+00  0.17379E+00  0.23955E+00
  0.47999E-01  0.95383E+02    0.48000E-01 -0.22888E-01 -0.25112E-01  0.00000E+00  0.00000E+00  0.00000E+00    0.95382E+02  0.00000E+00  0.00000E+00 -0.18114E+00  0.17426E+00  0.24016E+00
  0.48999E-01  0.95783E+02    0.49000E-01 -0.23364E-01 -0.25636E-01  0.00000E+00  0.00000E+00  0.00000E+00    0.95782E+02  0.00000E+00  0.00000E+00 -0.18064E+00  0.17599E+00  0.24072E+00
  0.49999E-01  0.96180E+02    0.50000E-01 -0.23840E-01 -0.26160E-01  0.00000E+00  0.00000E+00  0.00000E+00    0.96178E+02  0.00000E+00  0.00000E+00 -0.18005E+00  0.17780E+00  0.24128E+00
  0.50999E-01  0.96574E+02    0.51000E-01 -0.24316E-01 -0.26684E-01  0.00000E+00  0.00000E+00  0.00000E+00    0.96572E+02  0.00000E+00  0.00000E+00 -0.17943E+00  0.17963E+00  0.24183E+00
  0.51999E-01  0.96965E+02    0.52000E-01 -0.24792E-01 -0.27208E-01  0.00000E+00  0.00000E+00  0.00000E+00    0.96964E+02  0.00000E+00  0.00000E+00 -0.17879E+00  0.18147E+00  0.24238E+00
  0.52999E-01  0.97355E+02    0.53000E-01 -0.25268E-01 -0.27732E-01  0.00000E+00  0.00000E+00  0.00000E+00    0.97353E+02  0.00000E+00  0.00000E+00 -0.17812E+00  0.18333E+00  0.24293E+00
  0.53999E-01  0.97742E+02    0.54000E-01 -0.25744E-01 -0.28256E-01  0.00000E+00  0.00000E+00  0.00000E+00    0.97741E+02  0.00000E+00  0.00000E+00 -0.17743E+00  0.18520E+00  0.24347E+00
  0.54999E-01  0.98128E+02    0.55000E-01 -0.26220E-01 -0.28780E-01  0.00000E+00  0.00000E+00  0.00000E+00    0.98126E+02  0.00000E+00  0.00000E+00 -0.17673E+00  0.18708E+00  0.24402E+00
  0.55999E-01  0.98526E+02    0.56000E-01 -0.26696E-01 -0.29304E-01  0.00000E+00  0.00000E+00  0.00000E+00    0.98524E+02  0.00000E+00  0.00000E+00 -0.17343E+00  0.19042E+00  0.24444E+00
  0.56999E-01  0.98890E+02    0.57000E-01 -0.27172E-01 -0.29828E-01  0.00000E+00  0.00000E+00  0.00000E+00    0.98888E+02  0.00000E+00  0.00000E+00 -0.17519E+00  0.19095E+00  0.24510E+00
  0.57999E-01  0.99285E+02    0.58000E-01 -0.27648E-01 -0.30352E-01  0.00000E+00  0.00000E+00  0.00000E+00    0.99283E+02  0.00000E+00  0.00000E+00 -0.17191E+00  0.19428E+00  0.24551E+00
  0.58999E-01  0.99646E+02    0.59000E-01 -0.28124E-01 -0.30876E-01  0.00000E+00  0.00000E+00  0.00000E+00    0.99644E+02  0.00000E+00  0.00000E+00 -0.17361E+00  0.19482E+00  0.24618E+00
  0.59999E-01  0.10001E+03    0.60000E-01 -0.28600E-01 -0.31400E-01  0.00000E+00  0.00000E+00  0.00000E+00    0.10001E+03  0.00000E+00  0.00000E+00 -0.17314E+00  0.19656E+00  0.24670E+00
  0.60999E-01  0.10039E+03    0.61000E-01 -0.29075E-01 -0.31925E-01  0.00000E+00  0.00000E+00  0.00000E+00    0.10039E+03  0.00000E+00  0.00000E+00 -0.17200E+00  0.19865E+00  0.24725E+00
  0.61999E-01  0.10075E+03    0.62000E-01 -0.29551E-01 -0.32449E-01  0.00000E+00  0.00000E+00  0.00000E+00    0.10075E+03  0.00000E+00  0.00000E+00 -0.17143E+00  0.20049E+00  0.24777E+00
  0.62999E-01  0.10113E+03    0.63000E-01 -0.30027E-01 -0.32973E-01  0.00000E+00  0.00000E+00  0.00000E+00    0.10113E+03  0.00000E+00  0.00000E+00 -0.17025E+00  0.20261E+00  0.24832E+00
  0.63999E-01  0.10149E+03    0.64000E-01 -0.30503E-01 -0.33497E-01  0.00000E+00  0.00000E+00  0.00000E+00    0.10149E+03  0.00000E+00  0.00000E+00 -0.16964E+00  0.20447E+00  0.24885E+00
  0.64999E-01  0.10186E+03    0.65000E-01 -0.30979E-01 -0.34021E-01  0.00000E+00  0.00000E+00  0.00000E+00    0.10186E+03  0.00000E+00  0.00000E+00 -0.16841E+00  0.20663E+00  0.24939E+00
  0.65999E-01  0.10222E+03    0.66000E-01 -0.31454E-01 -0.34546E-01  0.00000E+00  0.00000E+00  0.00000E+00    0.10221E+03  0.00000E+00  0.00000E+00 -0.16776E+00  0.20851E+00  0.24992E+00
  0.66999E-01  0.10259E+03    0.67000E-01 -0.31930E-01 -0.35070E-01  0.00000E+00  0.00000E+00  0.00000E+00    0.10259E+03  0.00000E+00  0.00000E+00 -0.16649E+00  0.21069E+00  0.25047E+00
  0.67999E-01  0.10294E+03    0.68000E-01 -0.32405E-01 -0.35595E-01  0.00000E+00  0.00000E+00  0.00000E+00    0.10293E+03  0.00000E+00  0.00000E+00 -0.16579E+00  0.21260E+00  0.25100E+00
  0.68999E-01  0.10330E+03    0.69000E-01 -0.32881E-01 -0.36119E-01  0.00000E+00  0.00000E+00  0.00000E+00    0.10330E+03  0.00000E+00  0.00000E+00 -0.16448E+00  0.21480E+00  0.25154E+00
  0.69999E-01  0.10365E+03    0.70000E-01 -0.33357E-01 -0.36643E-01  0.00000E+00  0.00000E+00  0.00000E+00    0.10365E+03  0.00000E+00  0.00000E+00 -0.16375E+00  0.21674E+00  0.25208E+00
  0.70999E-01  0.10400E+03    0.71000E-01 -0.33832E-01 -0.37168E-01  0.00000E+00  0.00000E+00  0.00000E+00    0.10400E+03  0.00000E+00  0.00000E+00 -0.16275E+00  0.21880E+00  0.25263E+00
  0.71999E-01  0.10435E+03    0.72000E-01 -0.34308E-01 -0.37692E-01  0.00000E+00  0.00000E+00  0.00000E+00    0.10435E+03  0.00000E+00  0.00000E+00 -0.16169E+00  0.22090E+00  0.25317E+00
  0.72998E-01  0.10470E+03    0.73000E-01 -0.34783E-01 -0.38217E-01  0.00000E+00  0.00000E+00  0.00000E+00    0.10470E+03  0.00000E+00  0.00000E+00 -0.16061E+00  0.22302E+00  0.25372E+00
  0.73998E-01  0.10505E+03    0.74000E-01 -0.35259E-01 -0.38741E-01  0.00000E+00  0.00000E+00  0.00000E+00    0.10504E+03  0.00000E+00  0.00000E+00 -0.15950E+00  0.22514E+00  0.25427E+00
  0.74998E-01  0.10539E+03    0.75000E-01 -0.35734E-01 -0.39266E-01  0.00000E+00  0.00000E+00  0.00000E+00    0.10539E+03  0.00000E+00  0.00000E+00 -0.15837E+00  0.22728E+00  0.25482E+00
  0.75998E-01  0.10573E+03    0.76000E-01 -0.36210E-01 -0.39790E-01  0.00000E+00  0.00000E+00  0.00000E+00    0.10573E+03  0.00000E+00  0.00000E+00 -0.15723E+00  0.22944E+00  0.25537E+00
  0.76998E-01  0.10608E+03    0.77000E-01 -0.36685E-01 -0.40315E-01  0.00000E+00  0.00000E+00  0.00000E+00    0.10607E+03  0.00000E+00  0.00000E+00 -0.15606E+00  0.23160E+00  0.25593E+00
  0.77998E-01  0.10642E+03    0.78000E-01 -0.37160E-01 -0.40840E-01  0.00000E+00  0.00000E+00  0.00000E+00    0.10641E+03  0.00000E+00  0.00000E+00 -0.15488E+00  0.23378E+00  0.25649E+00
  0.78998E-01  0.10675E+03    0.79000E-01 -0.37636E-01 -0.41364E-01  0.00000E+00  0.00000E+00  0.00000E+00    0.10675E+03  0.00000E+00  0.00000E+00 -0.15368E+00  0.23598E+00  0.25706E+00
  0.79998E-01  0.10709E+03    0.80000E-01 -0.38111E-01 -0.41889E-01  0.00000E+00  0.00000E+00  0.00000E+00    0.10709E+03  0.00000E+00  0.00000E+00 -0.15247E+00  0.23818E+00  0.25763E+00
  0.80998E-01  0.10743E+03    0.81000E-01 -0.38586E-01 -0.42414E-01  0.00000E+00  0.00000E+00  0.00000E+00    0.10742E+03  0.00000E+00  0.00000E+00 -0.15123E+00  0.24040E+00  0.25821E+00
  0.81998E-01  0.10776E+03    0.82000E-01 -0.39062E-01 -0.42938E-01  0.00000E+00  0.00000E+00  0.00000E+00    0.10776E+03  0.00000E+00  0.00000E+00 -0.14998E+00  0.24264E+00  0.25879E+00
  0.82998E-01  0.10809E+03    0.83000E-01 -0.39537E-01 -0.43463E-01  0.00000E+00  0.00000E+00  0.00000E+00    0.10809E+03  0.00000E+00  0.00000E+00 -0.14871E+00  0.24488E+00  0.25938E+00
  0.83998E-01  0.10842E+03    0.84000E-01 -0.40012E-01 -0.43988E-01  0.00000E+00  0.00000E+00  0.00000E+00    0.10842E+03  0.00000E+00  0.00000E+00 -0.14743E+00  0.24715E+00  0.25997E+00
  0.84998E-01  0.10875E+03    0.85000E-01 -0.40487E-01 -0.44513E-01  0.00000E+00  0.00000E+00  0.00000E+00    0.10874E+03  0.00000E+00  0.00000E+00 -0.14008E+00  0.25228E+00  0.26060E+00
  0.85998E-01  0.10905E+03    0.86000E-01 -0.40962E-01 -0.45038E-01  0.00000E+00  0.00000E+00  0.00000E+00    0.10905E+03  0.00000E+00  0.00000E+00 -0.14035E+00  0.25421E+00  0.26129E+00
  0.86998E-01  0.10937E+03    0.87000E-01 -0.41437E-01 -0.45563E-01  0.00000E+00  0.00000E+00  0.00000E+00    0.10937E+03  0.00000E+00  0.00000E+00 -0.13877E+00  0.25660E+00  0.26193E+00
  0.87998E-01  0.10969E+03    0.88000E-01 -0.41913E-01 -0.46087E-01  0.00000E+00  0.00000E+00  0.00000E+00    0.10969E+03  0.00000E+00  0.00000E+00 -0.13742E+00  0.25894E+00  0.26255E+00
  0.88998E-01  0.11001E+03    0.89000E-01 -0.42388E-01 -0.46612E-01  0.00000E+00  0.00000E+00  0.00000E+00    0.11001E+03  0.00000E+00  0.00000E+00 -0.13605E+00  0.26130E+00  0.26319E+00
  0.89998E-01  0.11033E+03    0.90000E-01 -0.42863E-01 -0.47137E-01  0.00000E+00  0.00000E+00  0.00000E+00    0.11033E+03  0.00000E+00  0.00000E+00 -0.13467E+00  0.26366E+00  0.26382E+00
  0.90998E-01  0.11069E+03    0.91000E-01 -0.43338E-01 -0.47662E-01  0.00000E+00  0.00000E+00  0.00000E+00    0.11069E+03  0.00000E+00  0.00000E+00 -0.13188E+00  0.26663E+00  0.26439E+00
  0.91998E-01  0.11102E+03    0.92000E-01 -0.43813E-01 -0.48187E-01  0.00000E+00  0.00000E+00  0.00000E+00    0.11101E+03  0.00000E+00  0.00000E+00 -0.13082E+00  0.26895E+00  0.26502E+00
  0.92998E-01  0.11133E+03    0.93000E-01 -0.44288E-01 -0.48712E-01  0.00000E+00  0.00000E+00  0.00000E+00    0.11133E+03  0.00000E+00  0.00000E+00 -0.12939E+00  0.27136E+00  0.26568E+00
  0.93998E-01  0.11164E+03    0.94000E-01 -0.44762E-01 -0.49238E-01  0.00000E+00  0.00000E+00  0.00000E+00    0.11164E+03  0.00000E+00  0.00000E+00 -0.12795E+00  0.27380E+00  0.26635E+00
  0.94998E-01  0.11195E+03    0.95000E-01 -0.45237E-01 -0.49763E-01  0.00000E+00  0.00000E+00  0.00000E+00    0.11195E+03  0.00000E+00  0.00000E+00 -0.12649E+00  0.27625E+00  0.26703E+00
  0.95998E-01  0.11226E+03    0.96000E-01 -0.45712E-01 -0.50288E-01  0.00000E+00  0.00000E+00  0.00000E+00    0.11226E+03  0.00000E+00  0.00000E+00 -0.12502E+00  0.27871E+00  0.26772E+00
  0.96998E-01  0.11257E+03    0.97000E-01 -0.46187E-01 -0.50813E-01  0.00000E+00  0.00000E+00  0.00000E+00    0.11257E+03  0.00000E+00  0.00000E+00 -0.12353E+00  0.28119E+00  0.26842E+00
  0.97998E-01  0.11288E+03    0.98000E-01 -0.46662E-01 -0.51338E-01  0.00000E+00  0.00000E+00  0.00000E+00    0.11288E+03  0.00000E+00  0.00000E+00 -0.12204E+00  0.28368E+00  0.26914E+00
  0.98998E-01  0.11318E+03    0.99000E-01 -0.47137E-01 -0.51863E-01  0.00000E+00  0.00000E+00  0.00000E+00    0.11318E+03  0.00000E+00  0.00000E+00 -0.12052E+00  0.28619E+00  0.26986E+00
  0.99998E-01  0.11349E+03    0.10000E+00 -0.47612E-01 -0.52388E-01  0.00000E+00  0.00000E+00  0.00000E+00    0.11348E+03  0.00000E+00  0.00000E+00 -0.11900E+00  0.28872E+00  0.27059E+00
