          Evm          Svm            E11          E22          E33          E23          E13          E12         SCAU11       SCAU22       SCAU33       SCAU23       SCAU13       SCAU12      TEMP
  0.00000E+00  0.73681E+02    0.00000E+00  0.00000E+00  0.00000E+00  0.00000E+00  0.00000E+00  0.00000E+00    0.73679E+02  0.00000E+00  0.00000E+00 -0.17089E+00  0.10595E+00  0.20359E+00
  0.99998E-03  0.74183E+02    0.10000E-02 -0.47967E-03 -0.52033E-03  0.00000E+00  0.00000E+00  0.00000E+00    0.74181E+02  0.00000E+00  0.00000E+00 -0.17484E+00  0.10853E+00  0.20635E+00
  0.20000E-02  0.74656E+02    0.20000E-02 -0.95784E-03 -0.10422E-02  0.00000E+00  0.00000E+00  0.00000E+00    0.74654E+02  0.00000E+00  0.00000E+00 -0.17517E+00  0.10944E+00  0.20821E+00
  0.29999E-02  0.75179E+02    0.30000E-02 -0.14356E-02 -0.15644E-02  0.00000E+00  0.00000E+00  0.00000E+00    0.75177E+02  0.00000E+00  0.00000E+00 -0.17616E+00  0.11045E+00  0.20950E+00
  0.39999E-02  0.75700E+02    0.40000E-02 -0.19132E-02 -0.20868E-02  0.00000E+00  0.00000E+00  0.00000E+00    0.75698E+02  0.00000E+00  0.00000E+00 -0.17702E+00  0.11147E+00  0.21058E+00
  0.49999E-02  0.76217E+02    0.50000E-02 -0.23905E-02 -0.26095E-02  0.00000E+00  0.00000E+00  0.00000E+00    0.76216E+02  0.00000E+00  0.00000E+00 -0.17785E+00  0.11252E+00  0.21157E+00
  0.59999E-02  0.76732E+02    0.60000E-02 -0.28678E-02 -0.31322E-02  0.00000E+00  0.00000E+00  0.00000E+00    0.76730E+02  0.00000E+00  0.00000E+00 -0.17864E+00  0.11360E+00  0.21251E+00
  0.69998E-02  0.77233E+02    0.70000E-02 -0.33451E-02 -0.36549E-02  0.00000E+00  0.00000E+00  0.00000E+00    0.77231E+02  0.00000E+00  0.00000E+00 -0.17767E+00  0.11540E+00  0.21345E+00
  0.79998E-02  0.77748E+02    0.80000E-02 -0.38222E-02 -0.41778E-02  0.00000E+00  0.00000E+00  0.00000E+00    0.77746E+02  0.00000E+00  0.00000E+00 -0.17838E+00  0.11664E+00  0.21433E+00
  0.89998E-02  0.78253E+02    0.90000E-02 -0.42993E-02 -0.47007E-02  0.00000E+00  0.00000E+00  0.00000E+00    0.78252E+02  0.00000E+00  0.00000E+00 -0.17905E+00  0.11779E+00  0.21518E+00
  0.99998E-02  0.78755E+02    0.10000E-01 -0.47764E-02 -0.52236E-02  0.00000E+00  0.00000E+00  0.00000E+00    0.78753E+02  0.00000E+00  0.00000E+00 -0.17968E+00  0.11895E+00  0.21602E+00
  0.11000E-01  0.79254E+02    0.11000E-01 -0.52535E-02 -0.57465E-02  0.00000E+00  0.00000E+00  0.00000E+00    0.79252E+02  0.00000E+00  0.00000E+00 -0.18027E+00  0.12013E+00  0.21684E+00
  0.12000E-01  0.79750E+02    0.12000E-01 -0.57305E-02 -0.62695E-02  0.00000E+00  0.00000E+00  0.00000E+00    0.79748E+02  0.00000E+00  0.00000E+00 -0.18083E+00  0.12133E+00  0.21764E+00
  0.13000E-01  0.80242E+02    0.13000E-01 -0.62075E-02 -0.67925E-02  0.00000E+00  0.00000E+00  0.00000E+00    0.80241E+02  0.00000E+00  0.00000E+00 -0.18134E+00  0.12255E+00  0.21843E+00
  0.14000E-01  0.80732E+02    0.14000E-01 -0.66845E-02 -0.73155E-02  0.00000E+00  0.00000E+00  0.00000E+00    0.80730E+02  0.00000E+00  0.00000E+00 -0.18183E+00  0.12379E+00  0.21921E+00
  0.15000E-01  0.81219E+02    0.15000E-01 -0.71614E-02 -0.78386E-02  0.00000E+00  0.00000E+00  0.00000E+00    0.81217E+02  0.00000E+00  0.00000E+00 -0.18227E+00  0.12504E+00  0.21998E+00
  0.16000E-01  0.81703E+02    0.16000E-01 -0.76384E-02 -0.83616E-02  0.00000E+00  0.00000E+00  0.00000E+00    0.81701E+02  0.00000E+00  0.00000E+00 -0.18268E+00  0.12632E+00  0.22074E+00
  0.17000E-01  0.82183E+02    0.17000E-01 -0.81153E-02 -0.88847E-02  0.00000E+00  0.00000E+00  0.00000E+00    0.82182E+02  0.00000E+00  0.00000E+00 -0.18306E+00  0.12761E+00  0.22148E+00
  0.18000E-01  0.82661E+02    0.18000E-01 -0.85922E-02 -0.94078E-02  0.00000E+00  0.00000E+00  0.00000E+00    0.82660E+02  0.00000E+00  0.00000E+00 -0.18340E+00  0.12893E+00  0.22222E+00
  0.19000E-01  0.83136E+02    0.19000E-01 -0.90690E-02 -0.99310E-02  0.00000E+00  0.00000E+00  0.00000E+00    0.83135E+02  0.00000E+00  0.00000E+00 -0.18370E+00  0.13026E+00  0.22295E+00
  0.20000E-01  0.83609E+02    0.20000E-01 -0.95459E-02 -0.10454E-01  0.00000E+00  0.00000E+00  0.00000E+00    0.83607E+02  0.00000E+00  0.00000E+00 -0.18397E+00  0.13161E+00  0.22367E+00
  0.21000E-01  0.84078E+02    0.21000E-01 -0.10023E-01 -0.10977E-01  0.00000E+00  0.00000E+00  0.00000E+00    0.84076E+02  0.00000E+00  0.00000E+00 -0.18421E+00  0.13298E+00  0.22438E+00
  0.22000E-01  0.84545E+02    0.22000E-01 -0.10500E-01 -0.11500E-01  0.00000E+00  0.00000E+00  0.00000E+00    0.84543E+02  0.00000E+00  0.00000E+00 -0.18441E+00  0.13436E+00  0.22508E+00
  0.22999E-01  0.85008E+02    0.23000E-01 -0.10976E-01 -0.12024E-01  0.00000E+00  0.00000E+00  0.00000E+00    0.85006E+02  0.00000E+00  0.00000E+00 -0.18458E+00  0.13577E+00  0.22577E+00
  0.23999E-01  0.85469E+02    0.24000E-01 -0.11453E-01 -0.12547E-01  0.00000E+00  0.00000E+00  0.00000E+00    0.85467E+02  0.00000E+00  0.00000E+00 -0.18472E+00  0.13719E+00  0.22645E+00
  0.24999E-01  0.85928E+02    0.25000E-01 -0.11930E-01 -0.13070E-01  0.00000E+00  0.00000E+00  0.00000E+00    0.85926E+02  0.00000E+00  0.00000E+00 -0.18483E+00  0.13863E+00  0.22713E+00
  0.25999E-01  0.86383E+02    0.26000E-01 -0.12406E-01 -0.13594E-01  0.00000E+00  0.00000E+00  0.00000E+00    0.86381E+02  0.00000E+00  0.00000E+00 -0.18490E+00  0.14009E+00  0.22780E+00
  0.26999E-01  0.86836E+02    0.27000E-01 -0.12883E-01 -0.14117E-01  0.00000E+00  0.00000E+00  0.00000E+00    0.86834E+02  0.00000E+00  0.00000E+00 -0.18494E+00  0.14157E+00  0.22846E+00
  0.27999E-01  0.87286E+02    0.28000E-01 -0.13360E-01 -0.14640E-01  0.00000E+00  0.00000E+00  0.00000E+00    0.87284E+02  0.00000E+00  0.00000E+00 -0.18495E+00  0.14307E+00  0.22911E+00
  0.28999E-01  0.87733E+02    0.29000E-01 -0.13836E-01 -0.15164E-01  0.00000E+00  0.00000E+00  0.00000E+00    0.87732E+02  0.00000E+00  0.00000E+00 -0.18493E+00  0.14458E+00  0.22976E+00
  0.29999E-01  0.88178E+02    0.30000E-01 -0.14313E-01 -0.15687E-01  0.00000E+00  0.00000E+00  0.00000E+00    0.88176E+02  0.00000E+00  0.00000E+00 -0.18488E+00  0.14610E+00  0.23040E+00
  0.30999E-01  0.88620E+02    0.31000E-01 -0.14790E-01 -0.16210E-01  0.00000E+00  0.00000E+00  0.00000E+00    0.88618E+02  0.00000E+00  0.00000E+00 -0.18480E+00  0.14765E+00  0.23104E+00
  0.31999E-01  0.89060E+02    0.32000E-01 -0.15266E-01 -0.16734E-01  0.00000E+00  0.00000E+00  0.00000E+00    0.89058E+02  0.00000E+00  0.00000E+00 -0.18468E+00  0.14921E+00  0.23166E+00
  0.32999E-01  0.89497E+02    0.33000E-01 -0.15743E-01 -0.17257E-01  0.00000E+00  0.00000E+00  0.00000E+00    0.89495E+02  0.00000E+00  0.00000E+00 -0.18454E+00  0.15079E+00  0.23229E+00
  0.33999E-01  0.89931E+02    0.34000E-01 -0.16219E-01 -0.17781E-01  0.00000E+00  0.00000E+00  0.00000E+00    0.89929E+02  0.00000E+00  0.00000E+00 -0.18436E+00  0.15239E+00  0.23290E+00
  0.34999E-01  0.90363E+02    0.35000E-01 -0.16696E-01 -0.18304E-01  0.00000E+00  0.00000E+00  0.00000E+00    0.90361E+02  0.00000E+00  0.00000E+00 -0.18416E+00  0.15400E+00  0.23351E+00
  0.35999E-01  0.90793E+02    0.36000E-01 -0.17172E-01 -0.18828E-01  0.00000E+00  0.00000E+00  0.00000E+00    0.90791E+02  0.00000E+00  0.00000E+00 -0.18393E+00  0.15563E+00  0.23412E+00
  0.36999E-01  0.91219E+02    0.37000E-01 -0.17649E-01 -0.19351E-01  0.00000E+00  0.00000E+00  0.00000E+00    0.91218E+02  0.00000E+00  0.00000E+00 -0.18368E+00  0.15727E+00  0.23472E+00
  0.37999E-01  0.91644E+02    0.38000E-01 -0.18125E-01 -0.19875E-01  0.00000E+00  0.00000E+00  0.00000E+00    0.91642E+02  0.00000E+00  0.00000E+00 -0.18339E+00  0.15893E+00  0.23531E+00
  0.38999E-01  0.92066E+02    0.39000E-01 -0.18601E-01 -0.20399E-01  0.00000E+00  0.00000E+00  0.00000E+00    0.92064E+02  0.00000E+00  0.00000E+00 -0.18308E+00  0.16061E+00  0.23590E+00
  0.39999E-01  0.92485E+02    0.40000E-01 -0.19078E-01 -0.20922E-01  0.00000E+00  0.00000E+00  0.00000E+00    0.92483E+02  0.00000E+00  0.00000E+00 -0.18273E+00  0.16230E+00  0.23649E+00
  0.40999E-01  0.92902E+02    0.41000E-01 -0.19554E-01 -0.21446E-01  0.00000E+00  0.00000E+00  0.00000E+00    0.92900E+02  0.00000E+00  0.00000E+00 -0.18237E+00  0.16401E+00  0.23707E+00
  0.41999E-01  0.93317E+02    0.42000E-01 -0.20030E-01 -0.21970E-01  0.00000E+00  0.00000E+00  0.00000E+00    0.93315E+02  0.00000E+00  0.00000E+00 -0.18197E+00  0.16573E+00  0.23764E+00
  0.42999E-01  0.93729E+02    0.43000E-01 -0.20507E-01 -0.22493E-01  0.00000E+00  0.00000E+00  0.00000E+00    0.93727E+02  0.00000E+00  0.00000E+00 -0.18155E+00  0.16746E+00  0.23821E+00
  0.43999E-01  0.94139E+02    0.44000E-01 -0.20983E-01 -0.23017E-01  0.00000E+00  0.00000E+00  0.00000E+00    0.94137E+02  0.00000E+00  0.00000E+00 -0.18110E+00  0.16922E+00  0.23878E+00
  0.44999E-01  0.94517E+02    0.45000E-01 -0.21459E-01 -0.23541E-01  0.00000E+00  0.00000E+00  0.00000E+00    0.94515E+02  0.00000E+00  0.00000E+00 -0.18333E+00  0.16957E+00  0.23936E+00
  0.45999E-01  0.94948E+02    0.46000E-01 -0.21935E-01 -0.24065E-01  0.00000E+00  0.00000E+00  0.00000E+00    0.94946E+02  0.00000E+00  0.00000E+00 -0.18031E+00  0.17263E+00  0.23987E+00
  0.46999E-01  0.95325E+02    0.47000E-01 -0.22412E-01 -0.24588E-01  0.00000E+00  0.00000E+00  0.00000E+00    0.95323E+02  0.00000E+00  0.00000E+00 -0.18232E+00  0.17310E+00  0.24048E+00
  0.47999E-01  0.95727E+02    0.48000E-01 -0.22888E-01 -0.25112E-01  0.00000E+00  0.00000E+00  0.00000E+00    0.95725E+02  0.00000E+00  0.00000E+00 -0.18183E+00  0.17482E+00  0.24104E+00
  0.48999E-01  0.96126E+02    0.49000E-01 -0.23364E-01 -0.25636E-01  0.00000E+00  0.00000E+00  0.00000E+00    0.96124E+02  0.00000E+00  0.00000E+00 -0.18126E+00  0.17663E+00  0.24160E+00
  0.49999E-01  0.96522E+02    0.50000E-01 -0.23840E-01 -0.26160E-01  0.00000E+00  0.00000E+00  0.00000E+00    0.96520E+02  0.00000E+00  0.00000E+00 -0.18067E+00  0.17844E+00  0.24215E+00
  0.50999E-01  0.96916E+02    0.51000E-01 -0.24316E-01 -0.26684E-01  0.00000E+00  0.00000E+00  0.00000E+00    0.96914E+02  0.00000E+00  0.00000E+00 -0.18005E+00  0.18028E+00  0.24270E+00
  0.51999E-01  0.97308E+02    0.52000E-01 -0.24792E-01 -0.27208E-01  0.00000E+00  0.00000E+00  0.00000E+00    0.97306E+02  0.00000E+00  0.00000E+00 -0.17940E+00  0.18212E+00  0.24325E+00
  0.52999E-01  0.97698E+02    0.53000E-01 -0.25268E-01 -0.27732E-01  0.00000E+00  0.00000E+00  0.00000E+00    0.97696E+02  0.00000E+00  0.00000E+00 -0.17873E+00  0.18398E+00  0.24379E+00
  0.53999E-01  0.98085E+02    0.54000E-01 -0.25744E-01 -0.28256E-01  0.00000E+00  0.00000E+00  0.00000E+00    0.98083E+02  0.00000E+00  0.00000E+00 -0.17804E+00  0.18585E+00  0.24434E+00
  0.54999E-01  0.98470E+02    0.55000E-01 -0.26220E-01 -0.28780E-01  0.00000E+00  0.00000E+00  0.00000E+00    0.98468E+02  0.00000E+00  0.00000E+00 -0.17732E+00  0.18774E+00  0.24489E+00
  0.55999E-01  0.98868E+02    0.56000E-01 -0.26696E-01 -0.29304E-01  0.00000E+00  0.00000E+00  0.00000E+00    0.98866E+02  0.00000E+00  0.00000E+00 -0.17402E+00  0.19109E+00  0.24530E+00
  0.56999E-01  0.99232E+02    0.57000E-01 -0.27172E-01 -0.29828E-01  0.00000E+00  0.00000E+00  0.00000E+00    0.99231E+02  0.00000E+00  0.00000E+00 -0.17578E+00  0.19162E+00  0.24597E+00
  0.57999E-01  0.99628E+02    0.58000E-01 -0.27648E-01 -0.30352E-01  0.00000E+00  0.00000E+00  0.00000E+00    0.99626E+02  0.00000E+00  0.00000E+00 -0.17249E+00  0.19496E+00  0.24637E+00
  0.58999E-01  0.99988E+02    0.59000E-01 -0.28124E-01 -0.30876E-01  0.00000E+00  0.00000E+00  0.00000E+00    0.99986E+02  0.00000E+00  0.00000E+00 -0.17419E+00  0.19549E+00  0.24704E+00
  0.59999E-01  0.10035E+03    0.60000E-01 -0.28600E-01 -0.31400E-01  0.00000E+00  0.00000E+00  0.00000E+00    0.10035E+03  0.00000E+00  0.00000E+00 -0.17372E+00  0.19724E+00  0.24756E+00
  0.60999E-01  0.10074E+03    0.61000E-01 -0.29075E-01 -0.31925E-01  0.00000E+00  0.00000E+00  0.00000E+00    0.10074E+03  0.00000E+00  0.00000E+00 -0.17257E+00  0.19934E+00  0.24811E+00
  0.61999E-01  0.10110E+03    0.62000E-01 -0.29551E-01 -0.32449E-01  0.00000E+00  0.00000E+00  0.00000E+00    0.10110E+03  0.00000E+00  0.00000E+00 -0.17199E+00  0.20118E+00  0.24863E+00
  0.62999E-01  0.10148E+03    0.63000E-01 -0.30027E-01 -0.32973E-01  0.00000E+00  0.00000E+00  0.00000E+00    0.10147E+03  0.00000E+00  0.00000E+00 -0.17081E+00  0.20330E+00  0.24918E+00
  0.63999E-01  0.10183E+03    0.64000E-01 -0.30503E-01 -0.33497E-01  0.00000E+00  0.00000E+00  0.00000E+00    0.10183E+03  0.00000E+00  0.00000E+00 -0.17019E+00  0.20517E+00  0.24970E+00
  0.64999E-01  0.10221E+03    0.65000E-01 -0.30979E-01 -0.34021E-01  0.00000E+00  0.00000E+00  0.00000E+00    0.10221E+03  0.00000E+00  0.00000E+00 -0.16896E+00  0.20733E+00  0.25025E+00
  0.65999E-01  0.10256E+03    0.66000E-01 -0.31454E-01 -0.34546E-01  0.00000E+00  0.00000E+00  0.00000E+00    0.10256E+03  0.00000E+00  0.00000E+00 -0.16830E+00  0.20922E+00  0.25077E+00
  0.66999E-01  0.10293E+03    0.67000E-01 -0.31930E-01 -0.35070E-01  0.00000E+00  0.00000E+00  0.00000E+00    0.10293E+03  0.00000E+00  0.00000E+00 -0.16703E+00  0.21140E+00  0.25132E+00
  0.67999E-01  0.10328E+03    0.68000E-01 -0.32405E-01 -0.35595E-01  0.00000E+00  0.00000E+00  0.00000E+00    0.10328E+03  0.00000E+00  0.00000E+00 -0.16633E+00  0.21331E+00  0.25185E+00
  0.68999E-01  0.10365E+03    0.69000E-01 -0.32881E-01 -0.36119E-01  0.00000E+00  0.00000E+00  0.00000E+00    0.10364E+03  0.00000E+00  0.00000E+00 -0.16501E+00  0.21552E+00  0.25239E+00
  0.69999E-01  0.10399E+03    0.70000E-01 -0.33357E-01 -0.36643E-01  0.00000E+00  0.00000E+00  0.00000E+00    0.10399E+03  0.00000E+00  0.00000E+00 -0.16427E+00  0.21746E+00  0.25293E+00
  0.70999E-01  0.10434E+03    0.71000E-01 -0.33832E-01 -0.37168E-01  0.00000E+00  0.00000E+00  0.00000E+00    0.10434E+03  0.00000E+00  0.00000E+00 -0.16327E+00  0.21953E+00  0.25347E+00
  0.71999E-01  0.10469E+03    0.72000E-01 -0.34308E-01 -0.37692E-01  0.00000E+00  0.00000E+00  0.00000E+00    0.10469E+03  0.00000E+00  0.00000E+00 -0.16221E+00  0.22163E+00  0.25402E+00
  0.72998E-01  0.10504E+03    0.73000E-01 -0.34783E-01 -0.38217E-01  0.00000E+00  0.00000E+00  0.00000E+00    0.10504E+03  0.00000E+00  0.00000E+00 -0.16112E+00  0.22375E+00  0.25456E+00
  0.73998E-01  0.10539E+03    0.74000E-01 -0.35259E-01 -0.38741E-01  0.00000E+00  0.00000E+00  0.00000E+00    0.10539E+03  0.00000E+00  0.00000E+00 -0.16001E+00  0.22588E+00  0.25511E+00
  0.74998E-01  0.10573E+03    0.75000E-01 -0.35734E-01 -0.39266E-01  0.00000E+00  0.00000E+00  0.00000E+00    0.10573E+03  0.00000E+00  0.00000E+00 -0.15887E+00  0.22803E+00  0.25566E+00
  0.75998E-01  0.10608E+03    0.76000E-01 -0.36210E-01 -0.39790E-01  0.00000E+00  0.00000E+00  0.00000E+00    0.10608E+03  0.00000E+00  0.00000E+00 -0.15772E+00  0.23019E+00  0.25622E+00
  0.76998E-01  0.10642E+03    0.77000E-01 -0.36685E-01 -0.40315E-01  0.00000E+00  0.00000E+00  0.00000E+00    0.10642E+03  0.00000E+00  0.00000E+00 -0.15655E+00  0.23236E+00  0.25677E+00
  0.77998E-01  0.10676E+03    0.78000E-01 -0.37160E-01 -0.40840E-01  0.00000E+00  0.00000E+00  0.00000E+00    0.10676E+03  0.00000E+00  0.00000E+00 -0.15537E+00  0.23454E+00  0.25733E+00
  0.78998E-01  0.10710E+03    0.79000E-01 -0.37636E-01 -0.41364E-01  0.00000E+00  0.00000E+00  0.00000E+00    0.10710E+03  0.00000E+00  0.00000E+00 -0.15417E+00  0.23674E+00  0.25790E+00
  0.79998E-01  0.10743E+03    0.80000E-01 -0.38111E-01 -0.41889E-01  0.00000E+00  0.00000E+00  0.00000E+00    0.10743E+03  0.00000E+00  0.00000E+00 -0.15294E+00  0.23895E+00  0.25847E+00
  0.80998E-01  0.10777E+03    0.81000E-01 -0.38586E-01 -0.42414E-01  0.00000E+00  0.00000E+00  0.00000E+00    0.10777E+03  0.00000E+00  0.00000E+00 -0.15171E+00  0.24118E+00  0.25905E+00
  0.81998E-01  0.10810E+03    0.82000E-01 -0.39062E-01 -0.42938E-01  0.00000E+00  0.00000E+00  0.00000E+00    0.10810E+03  0.00000E+00  0.00000E+00 -0.15045E+00  0.24341E+00  0.25963E+00
  0.82998E-01  0.10843E+03    0.83000E-01 -0.39537E-01 -0.43463E-01  0.00000E+00  0.00000E+00  0.00000E+00    0.10843E+03  0.00000E+00  0.00000E+00 -0.14917E+00  0.24566E+00  0.26021E+00
  0.83998E-01  0.10876E+03    0.84000E-01 -0.40012E-01 -0.43988E-01  0.00000E+00  0.00000E+00  0.00000E+00    0.10876E+03  0.00000E+00  0.00000E+00 -0.14788E+00  0.24793E+00  0.26080E+00
  0.84998E-01  0.10909E+03    0.85000E-01 -0.40487E-01 -0.44513E-01  0.00000E+00  0.00000E+00  0.00000E+00    0.10909E+03  0.00000E+00  0.00000E+00 -0.14054E+00  0.25308E+00  0.26143E+00
  0.85998E-01  0.10939E+03    0.86000E-01 -0.40962E-01 -0.45038E-01  0.00000E+00  0.00000E+00  0.00000E+00    0.10939E+03  0.00000E+00  0.00000E+00 -0.14079E+00  0.25501E+00  0.26213E+00
  0.86998E-01  0.10971E+03    0.87000E-01 -0.41437E-01 -0.45563E-01  0.00000E+00  0.00000E+00  0.00000E+00    0.10971E+03  0.00000E+00  0.00000E+00 -0.13921E+00  0.25741E+00  0.26276E+00
  0.87998E-01  0.11003E+03    0.88000E-01 -0.41913E-01 -0.46087E-01  0.00000E+00  0.00000E+00  0.00000E+00    0.11003E+03  0.00000E+00  0.00000E+00 -0.13785E+00  0.25975E+00  0.26339E+00
  0.88998E-01  0.11036E+03    0.89000E-01 -0.42388E-01 -0.46612E-01  0.00000E+00  0.00000E+00  0.00000E+00    0.11035E+03  0.00000E+00  0.00000E+00 -0.13648E+00  0.26211E+00  0.26402E+00
  0.89998E-01  0.11068E+03    0.90000E-01 -0.42863E-01 -0.47137E-01  0.00000E+00  0.00000E+00  0.00000E+00    0.11067E+03  0.00000E+00  0.00000E+00 -0.13509E+00  0.26448E+00  0.26466E+00
  0.90998E-01  0.11104E+03    0.91000E-01 -0.43338E-01 -0.47662E-01  0.00000E+00  0.00000E+00  0.00000E+00    0.11103E+03  0.00000E+00  0.00000E+00 -0.13230E+00  0.26746E+00  0.26522E+00
  0.91998E-01  0.11136E+03    0.92000E-01 -0.43813E-01 -0.48187E-01  0.00000E+00  0.00000E+00  0.00000E+00    0.11136E+03  0.00000E+00  0.00000E+00 -0.13123E+00  0.26978E+00  0.26585E+00
  0.92998E-01  0.11167E+03    0.93000E-01 -0.44288E-01 -0.48712E-01  0.00000E+00  0.00000E+00  0.00000E+00    0.11167E+03  0.00000E+00  0.00000E+00 -0.12980E+00  0.27220E+00  0.26651E+00
  0.93998E-01  0.11199E+03    0.94000E-01 -0.44762E-01 -0.49238E-01  0.00000E+00  0.00000E+00  0.00000E+00    0.11198E+03  0.00000E+00  0.00000E+00 -0.12835E+00  0.27464E+00  0.26718E+00
  0.94998E-01  0.11230E+03    0.95000E-01 -0.45237E-01 -0.49763E-01  0.00000E+00  0.00000E+00  0.00000E+00    0.11229E+03  0.00000E+00  0.00000E+00 -0.12689E+00  0.27709E+00  0.26786E+00
  0.95998E-01  0.11261E+03    0.96000E-01 -0.45712E-01 -0.50288E-01  0.00000E+00  0.00000E+00  0.00000E+00    0.11260E+03  0.00000E+00  0.00000E+00 -0.12541E+00  0.27956E+00  0.26855E+00
  0.96998E-01  0.11291E+03    0.97000E-01 -0.46187E-01 -0.50813E-01  0.00000E+00  0.00000E+00  0.00000E+00    0.11291E+03  0.00000E+00  0.00000E+00 -0.12392E+00  0.28204E+00  0.26926E+00
  0.97998E-01  0.11322E+03    0.98000E-01 -0.46662E-01 -0.51338E-01  0.00000E+00  0.00000E+00  0.00000E+00    0.11322E+03  0.00000E+00  0.00000E+00 -0.12242E+00  0.28454E+00  0.26997E+00
  0.98998E-01  0.11353E+03    0.99000E-01 -0.47137E-01 -0.51863E-01  0.00000E+00  0.00000E+00  0.00000E+00    0.11352E+03  0.00000E+00  0.00000E+00 -0.12090E+00  0.28706E+00  0.27069E+00
  0.99998E-01  0.11383E+03    0.10000E+00 -0.47612E-01 -0.52388E-01  0.00000E+00  0.00000E+00  0.00000E+00    0.11383E+03  0.00000E+00  0.00000E+00 -0.11937E+00  0.28959E+00  0.27143E+00
