          Evm          Svm            E11          E22          E33          E23          E13          E12         SCAU11       SCAU22       SCAU33       SCAU23       SCAU13       SCAU12      TEMP
  0.00000E+00  0.76564E+02    0.00000E+00  0.00000E+00  0.00000E+00  0.00000E+00  0.00000E+00  0.00000E+00    0.76562E+02  0.00000E+00  0.00000E+00 -0.17758E+00  0.11009E+00  0.21156E+00
  0.99998E-03  0.77066E+02    0.10000E-02 -0.47967E-03 -0.52033E-03  0.00000E+00  0.00000E+00  0.00000E+00    0.77064E+02  0.00000E+00  0.00000E+00 -0.18154E+00  0.11275E+00  0.21438E+00
  0.20000E-02  0.77539E+02    0.20000E-02 -0.95784E-03 -0.10422E-02  0.00000E+00  0.00000E+00  0.00000E+00    0.77537E+02  0.00000E+00  0.00000E+00 -0.18184E+00  0.11367E+00  0.21625E+00
  0.29999E-02  0.78062E+02    0.30000E-02 -0.14356E-02 -0.15644E-02  0.00000E+00  0.00000E+00  0.00000E+00    0.78060E+02  0.00000E+00  0.00000E+00 -0.18281E+00  0.11469E+00  0.21755E+00
  0.39999E-02  0.78583E+02    0.40000E-02 -0.19132E-02 -0.20868E-02  0.00000E+00  0.00000E+00  0.00000E+00    0.78581E+02  0.00000E+00  0.00000E+00 -0.18365E+00  0.11572E+00  0.21862E+00
  0.49999E-02  0.79091E+02    0.50000E-02 -0.23906E-02 -0.26094E-02  0.00000E+00  0.00000E+00  0.00000E+00    0.79090E+02  0.00000E+00  0.00000E+00 -0.18274E+00  0.11752E+00  0.21961E+00
  0.59999E-02  0.79613E+02    0.60000E-02 -0.28678E-02 -0.31322E-02  0.00000E+00  0.00000E+00  0.00000E+00    0.79611E+02  0.00000E+00  0.00000E+00 -0.18352E+00  0.11872E+00  0.22057E+00
  0.69998E-02  0.80125E+02    0.70000E-02 -0.33451E-02 -0.36549E-02  0.00000E+00  0.00000E+00  0.00000E+00    0.80123E+02  0.00000E+00  0.00000E+00 -0.18424E+00  0.11985E+00  0.22146E+00
  0.79998E-02  0.80633E+02    0.80000E-02 -0.38222E-02 -0.41778E-02  0.00000E+00  0.00000E+00  0.00000E+00    0.80631E+02  0.00000E+00  0.00000E+00 -0.18492E+00  0.12099E+00  0.22231E+00
  0.89998E-02  0.81138E+02    0.90000E-02 -0.42994E-02 -0.47006E-02  0.00000E+00  0.00000E+00  0.00000E+00    0.81136E+02  0.00000E+00  0.00000E+00 -0.18556E+00  0.12215E+00  0.22315E+00
  0.99998E-02  0.81640E+02    0.10000E-01 -0.47764E-02 -0.52236E-02  0.00000E+00  0.00000E+00  0.00000E+00    0.81638E+02  0.00000E+00  0.00000E+00 -0.18616E+00  0.12333E+00  0.22397E+00
  0.11000E-01  0.82139E+02    0.11000E-01 -0.52535E-02 -0.57465E-02  0.00000E+00  0.00000E+00  0.00000E+00    0.82137E+02  0.00000E+00  0.00000E+00 -0.18673E+00  0.12452E+00  0.22477E+00
  0.12000E-01  0.82634E+02    0.12000E-01 -0.57305E-02 -0.62695E-02  0.00000E+00  0.00000E+00  0.00000E+00    0.82633E+02  0.00000E+00  0.00000E+00 -0.18726E+00  0.12574E+00  0.22556E+00
  0.13000E-01  0.83127E+02    0.13000E-01 -0.62075E-02 -0.67925E-02  0.00000E+00  0.00000E+00  0.00000E+00    0.83125E+02  0.00000E+00  0.00000E+00 -0.18775E+00  0.12698E+00  0.22633E+00
  0.14000E-01  0.83617E+02    0.14000E-01 -0.66845E-02 -0.73155E-02  0.00000E+00  0.00000E+00  0.00000E+00    0.83615E+02  0.00000E+00  0.00000E+00 -0.18820E+00  0.12824E+00  0.22710E+00
  0.15000E-01  0.84104E+02    0.15000E-01 -0.71615E-02 -0.78385E-02  0.00000E+00  0.00000E+00  0.00000E+00    0.84102E+02  0.00000E+00  0.00000E+00 -0.18862E+00  0.12952E+00  0.22785E+00
  0.16000E-01  0.84588E+02    0.16000E-01 -0.76384E-02 -0.83616E-02  0.00000E+00  0.00000E+00  0.00000E+00    0.84586E+02  0.00000E+00  0.00000E+00 -0.18900E+00  0.13082E+00  0.22859E+00
  0.17000E-01  0.85069E+02    0.17000E-01 -0.81153E-02 -0.88847E-02  0.00000E+00  0.00000E+00  0.00000E+00    0.85067E+02  0.00000E+00  0.00000E+00 -0.18935E+00  0.13213E+00  0.22932E+00
  0.18000E-01  0.85547E+02    0.18000E-01 -0.85922E-02 -0.94078E-02  0.00000E+00  0.00000E+00  0.00000E+00    0.85545E+02  0.00000E+00  0.00000E+00 -0.18966E+00  0.13347E+00  0.23005E+00
  0.19000E-01  0.86022E+02    0.19000E-01 -0.90691E-02 -0.99309E-02  0.00000E+00  0.00000E+00  0.00000E+00    0.86020E+02  0.00000E+00  0.00000E+00 -0.18994E+00  0.13482E+00  0.23076E+00
  0.20000E-01  0.86494E+02    0.20000E-01 -0.95459E-02 -0.10454E-01  0.00000E+00  0.00000E+00  0.00000E+00    0.86492E+02  0.00000E+00  0.00000E+00 -0.19018E+00  0.13620E+00  0.23146E+00
  0.21000E-01  0.86964E+02    0.21000E-01 -0.10023E-01 -0.10977E-01  0.00000E+00  0.00000E+00  0.00000E+00    0.86962E+02  0.00000E+00  0.00000E+00 -0.19039E+00  0.13759E+00  0.23215E+00
  0.22000E-01  0.87430E+02    0.22000E-01 -0.10500E-01 -0.11500E-01  0.00000E+00  0.00000E+00  0.00000E+00    0.87428E+02  0.00000E+00  0.00000E+00 -0.19056E+00  0.13900E+00  0.23284E+00
  0.22999E-01  0.87894E+02    0.23000E-01 -0.10976E-01 -0.12024E-01  0.00000E+00  0.00000E+00  0.00000E+00    0.87892E+02  0.00000E+00  0.00000E+00 -0.19070E+00  0.14043E+00  0.23351E+00
  0.23999E-01  0.88355E+02    0.24000E-01 -0.11453E-01 -0.12547E-01  0.00000E+00  0.00000E+00  0.00000E+00    0.88353E+02  0.00000E+00  0.00000E+00 -0.19081E+00  0.14188E+00  0.23418E+00
  0.24999E-01  0.88813E+02    0.25000E-01 -0.11930E-01 -0.13070E-01  0.00000E+00  0.00000E+00  0.00000E+00    0.88812E+02  0.00000E+00  0.00000E+00 -0.19089E+00  0.14334E+00  0.23484E+00
  0.25999E-01  0.89269E+02    0.26000E-01 -0.12406E-01 -0.13594E-01  0.00000E+00  0.00000E+00  0.00000E+00    0.89267E+02  0.00000E+00  0.00000E+00 -0.19093E+00  0.14483E+00  0.23550E+00
  0.26999E-01  0.89722E+02    0.27000E-01 -0.12883E-01 -0.14117E-01  0.00000E+00  0.00000E+00  0.00000E+00    0.89720E+02  0.00000E+00  0.00000E+00 -0.19094E+00  0.14633E+00  0.23614E+00
  0.27999E-01  0.90172E+02    0.28000E-01 -0.13360E-01 -0.14640E-01  0.00000E+00  0.00000E+00  0.00000E+00    0.90170E+02  0.00000E+00  0.00000E+00 -0.19092E+00  0.14785E+00  0.23678E+00
  0.28999E-01  0.90620E+02    0.29000E-01 -0.13836E-01 -0.15164E-01  0.00000E+00  0.00000E+00  0.00000E+00    0.90618E+02  0.00000E+00  0.00000E+00 -0.19086E+00  0.14939E+00  0.23741E+00
  0.29999E-01  0.91065E+02    0.30000E-01 -0.14313E-01 -0.15687E-01  0.00000E+00  0.00000E+00  0.00000E+00    0.91063E+02  0.00000E+00  0.00000E+00 -0.19077E+00  0.15094E+00  0.23804E+00
  0.30999E-01  0.91507E+02    0.31000E-01 -0.14790E-01 -0.16210E-01  0.00000E+00  0.00000E+00  0.00000E+00    0.91505E+02  0.00000E+00  0.00000E+00 -0.19066E+00  0.15252E+00  0.23866E+00
  0.31999E-01  0.91947E+02    0.32000E-01 -0.15266E-01 -0.16734E-01  0.00000E+00  0.00000E+00  0.00000E+00    0.91945E+02  0.00000E+00  0.00000E+00 -0.19051E+00  0.15411E+00  0.23927E+00
  0.32999E-01  0.92384E+02    0.33000E-01 -0.15743E-01 -0.17257E-01  0.00000E+00  0.00000E+00  0.00000E+00    0.92382E+02  0.00000E+00  0.00000E+00 -0.19033E+00  0.15571E+00  0.23988E+00
  0.33999E-01  0.92818E+02    0.34000E-01 -0.16219E-01 -0.17781E-01  0.00000E+00  0.00000E+00  0.00000E+00    0.92816E+02  0.00000E+00  0.00000E+00 -0.19013E+00  0.15733E+00  0.24048E+00
  0.34999E-01  0.93250E+02    0.35000E-01 -0.16696E-01 -0.18304E-01  0.00000E+00  0.00000E+00  0.00000E+00    0.93248E+02  0.00000E+00  0.00000E+00 -0.18989E+00  0.15897E+00  0.24107E+00
  0.35999E-01  0.93680E+02    0.36000E-01 -0.17172E-01 -0.18828E-01  0.00000E+00  0.00000E+00  0.00000E+00    0.93678E+02  0.00000E+00  0.00000E+00 -0.18963E+00  0.16063E+00  0.24166E+00
  0.36999E-01  0.94107E+02    0.37000E-01 -0.17649E-01 -0.19351E-01  0.00000E+00  0.00000E+00  0.00000E+00    0.94105E+02  0.00000E+00  0.00000E+00 -0.18934E+00  0.16230E+00  0.24225E+00
  0.37999E-01  0.94531E+02    0.38000E-01 -0.18125E-01 -0.19875E-01  0.00000E+00  0.00000E+00  0.00000E+00    0.94529E+02  0.00000E+00  0.00000E+00 -0.18901E+00  0.16399E+00  0.24283E+00
  0.38999E-01  0.94953E+02    0.39000E-01 -0.18601E-01 -0.20399E-01  0.00000E+00  0.00000E+00  0.00000E+00    0.94951E+02  0.00000E+00  0.00000E+00 -0.18867E+00  0.16570E+00  0.24340E+00
  0.39999E-01  0.95373E+02    0.40000E-01 -0.19078E-01 -0.20922E-01  0.00000E+00  0.00000E+00  0.00000E+00    0.95371E+02  0.00000E+00  0.00000E+00 -0.18829E+00  0.16742E+00  0.24397E+00
  0.40999E-01  0.95790E+02    0.41000E-01 -0.19554E-01 -0.21446E-01  0.00000E+00  0.00000E+00  0.00000E+00    0.95788E+02  0.00000E+00  0.00000E+00 -0.18788E+00  0.16916E+00  0.24454E+00
  0.41999E-01  0.96174E+02    0.42000E-01 -0.20030E-01 -0.21970E-01  0.00000E+00  0.00000E+00  0.00000E+00    0.96172E+02  0.00000E+00  0.00000E+00 -0.19015E+00  0.16953E+00  0.24510E+00
  0.42999E-01  0.96613E+02    0.43000E-01 -0.20507E-01 -0.22493E-01  0.00000E+00  0.00000E+00  0.00000E+00    0.96611E+02  0.00000E+00  0.00000E+00 -0.18717E+00  0.17255E+00  0.24563E+00
  0.43999E-01  0.96996E+02    0.44000E-01 -0.20983E-01 -0.23017E-01  0.00000E+00  0.00000E+00  0.00000E+00    0.96994E+02  0.00000E+00  0.00000E+00 -0.18922E+00  0.17304E+00  0.24622E+00
  0.44999E-01  0.97405E+02    0.45000E-01 -0.21459E-01 -0.23541E-01  0.00000E+00  0.00000E+00  0.00000E+00    0.97403E+02  0.00000E+00  0.00000E+00 -0.18878E+00  0.17475E+00  0.24678E+00
  0.45999E-01  0.97811E+02    0.46000E-01 -0.21935E-01 -0.24065E-01  0.00000E+00  0.00000E+00  0.00000E+00    0.97809E+02  0.00000E+00  0.00000E+00 -0.18825E+00  0.17654E+00  0.24733E+00
  0.46999E-01  0.98214E+02    0.47000E-01 -0.22412E-01 -0.24588E-01  0.00000E+00  0.00000E+00  0.00000E+00    0.98212E+02  0.00000E+00  0.00000E+00 -0.18769E+00  0.17834E+00  0.24788E+00
  0.47999E-01  0.98615E+02    0.48000E-01 -0.22888E-01 -0.25112E-01  0.00000E+00  0.00000E+00  0.00000E+00    0.98613E+02  0.00000E+00  0.00000E+00 -0.18711E+00  0.18017E+00  0.24843E+00
  0.48999E-01  0.99014E+02    0.49000E-01 -0.23364E-01 -0.25636E-01  0.00000E+00  0.00000E+00  0.00000E+00    0.99012E+02  0.00000E+00  0.00000E+00 -0.18650E+00  0.18200E+00  0.24897E+00
  0.49999E-01  0.99410E+02    0.50000E-01 -0.23840E-01 -0.26160E-01  0.00000E+00  0.00000E+00  0.00000E+00    0.99408E+02  0.00000E+00  0.00000E+00 -0.18586E+00  0.18385E+00  0.24951E+00
  0.50999E-01  0.99804E+02    0.51000E-01 -0.24316E-01 -0.26684E-01  0.00000E+00  0.00000E+00  0.00000E+00    0.99802E+02  0.00000E+00  0.00000E+00 -0.18520E+00  0.18572E+00  0.25005E+00
  0.51999E-01  0.10021E+03    0.52000E-01 -0.24792E-01 -0.27208E-01  0.00000E+00  0.00000E+00  0.00000E+00    0.10021E+03  0.00000E+00  0.00000E+00 -0.18195E+00  0.18900E+00  0.25048E+00
  0.52999E-01  0.10058E+03    0.53000E-01 -0.25268E-01 -0.27732E-01  0.00000E+00  0.00000E+00  0.00000E+00    0.10058E+03  0.00000E+00  0.00000E+00 -0.18377E+00  0.18956E+00  0.25113E+00
  0.53999E-01  0.10099E+03    0.54000E-01 -0.25744E-01 -0.28256E-01  0.00000E+00  0.00000E+00  0.00000E+00    0.10099E+03  0.00000E+00  0.00000E+00 -0.18052E+00  0.19283E+00  0.25154E+00
  0.54999E-01  0.10136E+03    0.55000E-01 -0.26220E-01 -0.28780E-01  0.00000E+00  0.00000E+00  0.00000E+00    0.10136E+03  0.00000E+00  0.00000E+00 -0.18228E+00  0.19338E+00  0.25219E+00
  0.55999E-01  0.10173E+03    0.56000E-01 -0.26696E-01 -0.29304E-01  0.00000E+00  0.00000E+00  0.00000E+00    0.10173E+03  0.00000E+00  0.00000E+00 -0.18186E+00  0.19512E+00  0.25270E+00
  0.56999E-01  0.10212E+03    0.57000E-01 -0.27172E-01 -0.29828E-01  0.00000E+00  0.00000E+00  0.00000E+00    0.10212E+03  0.00000E+00  0.00000E+00 -0.18077E+00  0.19719E+00  0.25325E+00
  0.57999E-01  0.10249E+03    0.58000E-01 -0.27648E-01 -0.30352E-01  0.00000E+00  0.00000E+00  0.00000E+00    0.10249E+03  0.00000E+00  0.00000E+00 -0.18024E+00  0.19902E+00  0.25375E+00
  0.58999E-01  0.10288E+03    0.59000E-01 -0.28124E-01 -0.30876E-01  0.00000E+00  0.00000E+00  0.00000E+00    0.10288E+03  0.00000E+00  0.00000E+00 -0.17910E+00  0.20113E+00  0.25430E+00
  0.59999E-01  0.10324E+03    0.60000E-01 -0.28600E-01 -0.31400E-01  0.00000E+00  0.00000E+00  0.00000E+00    0.10324E+03  0.00000E+00  0.00000E+00 -0.17853E+00  0.20298E+00  0.25481E+00
  0.60999E-01  0.10363E+03    0.61000E-01 -0.29075E-01 -0.31925E-01  0.00000E+00  0.00000E+00  0.00000E+00    0.10363E+03  0.00000E+00  0.00000E+00 -0.17734E+00  0.20511E+00  0.25535E+00
  0.61999E-01  0.10399E+03    0.62000E-01 -0.29551E-01 -0.32449E-01  0.00000E+00  0.00000E+00  0.00000E+00    0.10399E+03  0.00000E+00  0.00000E+00 -0.17673E+00  0.20699E+00  0.25586E+00
  0.62999E-01  0.10437E+03    0.63000E-01 -0.30027E-01 -0.32973E-01  0.00000E+00  0.00000E+00  0.00000E+00    0.10436E+03  0.00000E+00  0.00000E+00 -0.17550E+00  0.20916E+00  0.25640E+00
  0.63999E-01  0.10472E+03    0.64000E-01 -0.30503E-01 -0.33497E-01  0.00000E+00  0.00000E+00  0.00000E+00    0.10472E+03  0.00000E+00  0.00000E+00 -0.17484E+00  0.21106E+00  0.25691E+00
  0.64999E-01  0.10510E+03    0.65000E-01 -0.30978E-01 -0.34022E-01  0.00000E+00  0.00000E+00  0.00000E+00    0.10510E+03  0.00000E+00  0.00000E+00 -0.17357E+00  0.21325E+00  0.25745E+00
  0.65999E-01  0.10545E+03    0.66000E-01 -0.31454E-01 -0.34546E-01  0.00000E+00  0.00000E+00  0.00000E+00    0.10545E+03  0.00000E+00  0.00000E+00 -0.17287E+00  0.21517E+00  0.25797E+00
  0.66999E-01  0.10581E+03    0.67000E-01 -0.31930E-01 -0.35070E-01  0.00000E+00  0.00000E+00  0.00000E+00    0.10581E+03  0.00000E+00  0.00000E+00 -0.17191E+00  0.21723E+00  0.25850E+00
  0.67999E-01  0.10617E+03    0.68000E-01 -0.32405E-01 -0.35595E-01  0.00000E+00  0.00000E+00  0.00000E+00    0.10617E+03  0.00000E+00  0.00000E+00 -0.17088E+00  0.21932E+00  0.25902E+00
  0.68999E-01  0.10652E+03    0.69000E-01 -0.32881E-01 -0.36119E-01  0.00000E+00  0.00000E+00  0.00000E+00    0.10652E+03  0.00000E+00  0.00000E+00 -0.16982E+00  0.22142E+00  0.25955E+00
  0.69999E-01  0.10688E+03    0.70000E-01 -0.33357E-01 -0.36643E-01  0.00000E+00  0.00000E+00  0.00000E+00    0.10688E+03  0.00000E+00  0.00000E+00 -0.16875E+00  0.22354E+00  0.26008E+00
  0.70999E-01  0.10723E+03    0.71000E-01 -0.33832E-01 -0.37168E-01  0.00000E+00  0.00000E+00  0.00000E+00    0.10723E+03  0.00000E+00  0.00000E+00 -0.16765E+00  0.22567E+00  0.26062E+00
  0.71999E-01  0.10758E+03    0.72000E-01 -0.34308E-01 -0.37692E-01  0.00000E+00  0.00000E+00  0.00000E+00    0.10758E+03  0.00000E+00  0.00000E+00 -0.16653E+00  0.22781E+00  0.26115E+00
  0.72998E-01  0.10793E+03    0.73000E-01 -0.34783E-01 -0.38217E-01  0.00000E+00  0.00000E+00  0.00000E+00    0.10793E+03  0.00000E+00  0.00000E+00 -0.16540E+00  0.22996E+00  0.26169E+00
  0.73998E-01  0.10828E+03    0.74000E-01 -0.35259E-01 -0.38741E-01  0.00000E+00  0.00000E+00  0.00000E+00    0.10828E+03  0.00000E+00  0.00000E+00 -0.16424E+00  0.23213E+00  0.26223E+00
  0.74998E-01  0.10863E+03    0.75000E-01 -0.35734E-01 -0.39266E-01  0.00000E+00  0.00000E+00  0.00000E+00    0.10862E+03  0.00000E+00  0.00000E+00 -0.16307E+00  0.23432E+00  0.26278E+00
  0.75998E-01  0.10897E+03    0.76000E-01 -0.36209E-01 -0.39791E-01  0.00000E+00  0.00000E+00  0.00000E+00    0.10897E+03  0.00000E+00  0.00000E+00 -0.16188E+00  0.23651E+00  0.26332E+00
  0.76998E-01  0.10931E+03    0.77000E-01 -0.36685E-01 -0.40315E-01  0.00000E+00  0.00000E+00  0.00000E+00    0.10931E+03  0.00000E+00  0.00000E+00 -0.16067E+00  0.23872E+00  0.26387E+00
  0.77998E-01  0.10965E+03    0.78000E-01 -0.37160E-01 -0.40840E-01  0.00000E+00  0.00000E+00  0.00000E+00    0.10965E+03  0.00000E+00  0.00000E+00 -0.15944E+00  0.24094E+00  0.26443E+00
  0.78998E-01  0.10999E+03    0.79000E-01 -0.37636E-01 -0.41364E-01  0.00000E+00  0.00000E+00  0.00000E+00    0.10999E+03  0.00000E+00  0.00000E+00 -0.15820E+00  0.24318E+00  0.26499E+00
  0.79998E-01  0.11033E+03    0.80000E-01 -0.38111E-01 -0.41889E-01  0.00000E+00  0.00000E+00  0.00000E+00    0.11033E+03  0.00000E+00  0.00000E+00 -0.15693E+00  0.24543E+00  0.26556E+00
  0.80998E-01  0.11066E+03    0.81000E-01 -0.38586E-01 -0.42414E-01  0.00000E+00  0.00000E+00  0.00000E+00    0.11066E+03  0.00000E+00  0.00000E+00 -0.15565E+00  0.24769E+00  0.26613E+00
  0.81998E-01  0.11100E+03    0.82000E-01 -0.39061E-01 -0.42939E-01  0.00000E+00  0.00000E+00  0.00000E+00    0.11099E+03  0.00000E+00  0.00000E+00 -0.14829E+00  0.25278E+00  0.26673E+00
  0.82998E-01  0.11131E+03    0.83000E-01 -0.39537E-01 -0.43463E-01  0.00000E+00  0.00000E+00  0.00000E+00    0.11130E+03  0.00000E+00  0.00000E+00 -0.14856E+00  0.25474E+00  0.26739E+00
  0.83998E-01  0.11163E+03    0.84000E-01 -0.40012E-01 -0.43988E-01  0.00000E+00  0.00000E+00  0.00000E+00    0.11163E+03  0.00000E+00  0.00000E+00 -0.14699E+00  0.25713E+00  0.26800E+00
  0.84998E-01  0.11196E+03    0.85000E-01 -0.40487E-01 -0.44513E-01  0.00000E+00  0.00000E+00  0.00000E+00    0.11195E+03  0.00000E+00  0.00000E+00 -0.14563E+00  0.25947E+00  0.26860E+00
  0.85998E-01  0.11228E+03    0.86000E-01 -0.40962E-01 -0.45038E-01  0.00000E+00  0.00000E+00  0.00000E+00    0.11228E+03  0.00000E+00  0.00000E+00 -0.14426E+00  0.26182E+00  0.26921E+00
  0.86998E-01  0.11261E+03    0.87000E-01 -0.41437E-01 -0.45563E-01  0.00000E+00  0.00000E+00  0.00000E+00    0.11261E+03  0.00000E+00  0.00000E+00 -0.14288E+00  0.26419E+00  0.26982E+00
  0.87998E-01  0.11297E+03    0.88000E-01 -0.41912E-01 -0.46088E-01  0.00000E+00  0.00000E+00  0.00000E+00    0.11297E+03  0.00000E+00  0.00000E+00 -0.14010E+00  0.26715E+00  0.27036E+00
  0.88998E-01  0.11330E+03    0.89000E-01 -0.42387E-01 -0.46613E-01  0.00000E+00  0.00000E+00  0.00000E+00    0.11330E+03  0.00000E+00  0.00000E+00 -0.13904E+00  0.26947E+00  0.27096E+00
  0.89998E-01  0.11362E+03    0.90000E-01 -0.42862E-01 -0.47138E-01  0.00000E+00  0.00000E+00  0.00000E+00    0.11362E+03  0.00000E+00  0.00000E+00 -0.13761E+00  0.27189E+00  0.27159E+00
  0.90998E-01  0.11394E+03    0.91000E-01 -0.43337E-01 -0.47663E-01  0.00000E+00  0.00000E+00  0.00000E+00    0.11394E+03  0.00000E+00  0.00000E+00 -0.13616E+00  0.27432E+00  0.27224E+00
  0.91998E-01  0.11426E+03    0.92000E-01 -0.43812E-01 -0.48188E-01  0.00000E+00  0.00000E+00  0.00000E+00    0.11425E+03  0.00000E+00  0.00000E+00 -0.13469E+00  0.27677E+00  0.27289E+00
  0.92998E-01  0.11457E+03    0.93000E-01 -0.44287E-01 -0.48713E-01  0.00000E+00  0.00000E+00  0.00000E+00    0.11457E+03  0.00000E+00  0.00000E+00 -0.13322E+00  0.27923E+00  0.27354E+00
  0.93998E-01  0.11488E+03    0.94000E-01 -0.44762E-01 -0.49238E-01  0.00000E+00  0.00000E+00  0.00000E+00    0.11488E+03  0.00000E+00  0.00000E+00 -0.13173E+00  0.28171E+00  0.27421E+00
  0.94998E-01  0.11519E+03    0.95000E-01 -0.45237E-01 -0.49763E-01  0.00000E+00  0.00000E+00  0.00000E+00    0.11519E+03  0.00000E+00  0.00000E+00 -0.13022E+00  0.28421E+00  0.27489E+00
  0.95998E-01  0.11550E+03    0.96000E-01 -0.45712E-01 -0.50288E-01  0.00000E+00  0.00000E+00  0.00000E+00    0.11550E+03  0.00000E+00  0.00000E+00 -0.12870E+00  0.28672E+00  0.27558E+00
  0.96998E-01  0.11581E+03    0.97000E-01 -0.46187E-01 -0.50813E-01  0.00000E+00  0.00000E+00  0.00000E+00    0.11581E+03  0.00000E+00  0.00000E+00 -0.12717E+00  0.28925E+00  0.27628E+00
  0.97998E-01  0.11612E+03    0.98000E-01 -0.46662E-01 -0.51338E-01  0.00000E+00  0.00000E+00  0.00000E+00    0.11612E+03  0.00000E+00  0.00000E+00 -0.12562E+00  0.29179E+00  0.27699E+00
  0.98998E-01  0.11643E+03    0.99000E-01 -0.47136E-01 -0.51864E-01  0.00000E+00  0.00000E+00  0.00000E+00    0.11642E+03  0.00000E+00  0.00000E+00 -0.12406E+00  0.29435E+00  0.27772E+00
  0.99998E-01  0.11673E+03    0.10000E+00 -0.47611E-01 -0.52389E-01  0.00000E+00  0.00000E+00  0.00000E+00    0.11673E+03  0.00000E+00  0.00000E+00 -0.12249E+00  0.29693E+00  0.27845E+00
