          Evm          Svm            E11          E22          E33          E23          E13          E12         SCAU11       SCAU22       SCAU33       SCAU23       SCAU13       SCAU12      TEMP
  0.00000E+00  0.85193E+02    0.00000E+00  0.00000E+00  0.00000E+00  0.00000E+00  0.00000E+00  0.00000E+00    0.85191E+02  0.00000E+00  0.00000E+00 -0.19759E+00  0.12250E+00  0.23540E+00
  0.99998E-03  0.85693E+02    0.10000E-02 -0.47967E-03 -0.52033E-03  0.00000E+00  0.00000E+00  0.00000E+00    0.85691E+02  0.00000E+00  0.00000E+00 -0.20159E+00  0.12539E+00  0.23839E+00
  0.20000E-02  0.86167E+02    0.20000E-02 -0.95784E-03 -0.10422E-02  0.00000E+00  0.00000E+00  0.00000E+00    0.86165E+02  0.00000E+00  0.00000E+00 -0.20182E+00  0.12630E+00  0.24033E+00
  0.29999E-02  0.86682E+02    0.30000E-02 -0.14356E-02 -0.15644E-02  0.00000E+00  0.00000E+00  0.00000E+00    0.86680E+02  0.00000E+00  0.00000E+00 -0.20101E+00  0.12814E+00  0.24153E+00
  0.39999E-02  0.87210E+02    0.40000E-02 -0.19132E-02 -0.20868E-02  0.00000E+00  0.00000E+00  0.00000E+00    0.87208E+02  0.00000E+00  0.00000E+00 -0.20180E+00  0.12934E+00  0.24267E+00
  0.49999E-02  0.87729E+02    0.50000E-02 -0.23906E-02 -0.26094E-02  0.00000E+00  0.00000E+00  0.00000E+00    0.87727E+02  0.00000E+00  0.00000E+00 -0.20253E+00  0.13046E+00  0.24361E+00
  0.59999E-02  0.88243E+02    0.60000E-02 -0.28679E-02 -0.31321E-02  0.00000E+00  0.00000E+00  0.00000E+00    0.88241E+02  0.00000E+00  0.00000E+00 -0.20322E+00  0.13160E+00  0.24450E+00
  0.69998E-02  0.88755E+02    0.70000E-02 -0.33452E-02 -0.36548E-02  0.00000E+00  0.00000E+00  0.00000E+00    0.88753E+02  0.00000E+00  0.00000E+00 -0.20386E+00  0.13277E+00  0.24535E+00
  0.79998E-02  0.89263E+02    0.80000E-02 -0.38224E-02 -0.41776E-02  0.00000E+00  0.00000E+00  0.00000E+00    0.89261E+02  0.00000E+00  0.00000E+00 -0.20447E+00  0.13396E+00  0.24618E+00
  0.89998E-02  0.89769E+02    0.90000E-02 -0.42995E-02 -0.47005E-02  0.00000E+00  0.00000E+00  0.00000E+00    0.89767E+02  0.00000E+00  0.00000E+00 -0.20503E+00  0.13518E+00  0.24697E+00
  0.99998E-02  0.90271E+02    0.10000E-01 -0.47766E-02 -0.52234E-02  0.00000E+00  0.00000E+00  0.00000E+00    0.90269E+02  0.00000E+00  0.00000E+00 -0.20556E+00  0.13641E+00  0.24775E+00
  0.11000E-01  0.90770E+02    0.11000E-01 -0.52537E-02 -0.57463E-02  0.00000E+00  0.00000E+00  0.00000E+00    0.90768E+02  0.00000E+00  0.00000E+00 -0.20605E+00  0.13767E+00  0.24851E+00
  0.12000E-01  0.91266E+02    0.12000E-01 -0.57307E-02 -0.62693E-02  0.00000E+00  0.00000E+00  0.00000E+00    0.91264E+02  0.00000E+00  0.00000E+00 -0.20650E+00  0.13895E+00  0.24925E+00
  0.13000E-01  0.91759E+02    0.13000E-01 -0.62077E-02 -0.67923E-02  0.00000E+00  0.00000E+00  0.00000E+00    0.91757E+02  0.00000E+00  0.00000E+00 -0.20691E+00  0.14025E+00  0.24998E+00
  0.14000E-01  0.92249E+02    0.14000E-01 -0.66847E-02 -0.73153E-02  0.00000E+00  0.00000E+00  0.00000E+00    0.92247E+02  0.00000E+00  0.00000E+00 -0.20729E+00  0.14157E+00  0.25070E+00
  0.15000E-01  0.92736E+02    0.15000E-01 -0.71617E-02 -0.78383E-02  0.00000E+00  0.00000E+00  0.00000E+00    0.92734E+02  0.00000E+00  0.00000E+00 -0.20763E+00  0.14292E+00  0.25140E+00
  0.16000E-01  0.93221E+02    0.16000E-01 -0.76386E-02 -0.83614E-02  0.00000E+00  0.00000E+00  0.00000E+00    0.93219E+02  0.00000E+00  0.00000E+00 -0.20793E+00  0.14428E+00  0.25210E+00
  0.17000E-01  0.93702E+02    0.17000E-01 -0.81155E-02 -0.88845E-02  0.00000E+00  0.00000E+00  0.00000E+00    0.93700E+02  0.00000E+00  0.00000E+00 -0.20819E+00  0.14566E+00  0.25278E+00
  0.18000E-01  0.94180E+02    0.18000E-01 -0.85924E-02 -0.94076E-02  0.00000E+00  0.00000E+00  0.00000E+00    0.94178E+02  0.00000E+00  0.00000E+00 -0.20842E+00  0.14706E+00  0.25345E+00
  0.19000E-01  0.94656E+02    0.19000E-01 -0.90693E-02 -0.99307E-02  0.00000E+00  0.00000E+00  0.00000E+00    0.94654E+02  0.00000E+00  0.00000E+00 -0.20861E+00  0.14849E+00  0.25412E+00
  0.20000E-01  0.95128E+02    0.20000E-01 -0.95461E-02 -0.10454E-01  0.00000E+00  0.00000E+00  0.00000E+00    0.95126E+02  0.00000E+00  0.00000E+00 -0.20876E+00  0.14993E+00  0.25477E+00
  0.21000E-01  0.95598E+02    0.21000E-01 -0.10023E-01 -0.10977E-01  0.00000E+00  0.00000E+00  0.00000E+00    0.95596E+02  0.00000E+00  0.00000E+00 -0.20888E+00  0.15139E+00  0.25542E+00
  0.22000E-01  0.96065E+02    0.22000E-01 -0.10500E-01 -0.11500E-01  0.00000E+00  0.00000E+00  0.00000E+00    0.96063E+02  0.00000E+00  0.00000E+00 -0.20897E+00  0.15287E+00  0.25606E+00
  0.22999E-01  0.96529E+02    0.23000E-01 -0.10976E-01 -0.12024E-01  0.00000E+00  0.00000E+00  0.00000E+00    0.96527E+02  0.00000E+00  0.00000E+00 -0.20902E+00  0.15437E+00  0.25669E+00
  0.23999E-01  0.96990E+02    0.24000E-01 -0.11453E-01 -0.12547E-01  0.00000E+00  0.00000E+00  0.00000E+00    0.96988E+02  0.00000E+00  0.00000E+00 -0.20903E+00  0.15590E+00  0.25731E+00
  0.24999E-01  0.97449E+02    0.25000E-01 -0.11930E-01 -0.13070E-01  0.00000E+00  0.00000E+00  0.00000E+00    0.97447E+02  0.00000E+00  0.00000E+00 -0.20901E+00  0.15744E+00  0.25792E+00
  0.25999E-01  0.97905E+02    0.26000E-01 -0.12407E-01 -0.13593E-01  0.00000E+00  0.00000E+00  0.00000E+00    0.97903E+02  0.00000E+00  0.00000E+00 -0.20896E+00  0.15900E+00  0.25853E+00
  0.26999E-01  0.98358E+02    0.27000E-01 -0.12883E-01 -0.14117E-01  0.00000E+00  0.00000E+00  0.00000E+00    0.98356E+02  0.00000E+00  0.00000E+00 -0.20887E+00  0.16057E+00  0.25913E+00
  0.27999E-01  0.98809E+02    0.28000E-01 -0.13360E-01 -0.14640E-01  0.00000E+00  0.00000E+00  0.00000E+00    0.98807E+02  0.00000E+00  0.00000E+00 -0.20876E+00  0.16217E+00  0.25973E+00
  0.28999E-01  0.99257E+02    0.29000E-01 -0.13837E-01 -0.15163E-01  0.00000E+00  0.00000E+00  0.00000E+00    0.99255E+02  0.00000E+00  0.00000E+00 -0.20861E+00  0.16379E+00  0.26031E+00
  0.29999E-01  0.99702E+02    0.30000E-01 -0.14313E-01 -0.15687E-01  0.00000E+00  0.00000E+00  0.00000E+00    0.99700E+02  0.00000E+00  0.00000E+00 -0.20842E+00  0.16542E+00  0.26089E+00
  0.30999E-01  0.10014E+03    0.31000E-01 -0.14790E-01 -0.16210E-01  0.00000E+00  0.00000E+00  0.00000E+00    0.10014E+03  0.00000E+00  0.00000E+00 -0.20821E+00  0.16708E+00  0.26147E+00
  0.31999E-01  0.10055E+03    0.32000E-01 -0.15266E-01 -0.16734E-01  0.00000E+00  0.00000E+00  0.00000E+00    0.10055E+03  0.00000E+00  0.00000E+00 -0.21064E+00  0.16749E+00  0.26201E+00
  0.32999E-01  0.10102E+03    0.33000E-01 -0.15743E-01 -0.17257E-01  0.00000E+00  0.00000E+00  0.00000E+00    0.10102E+03  0.00000E+00  0.00000E+00 -0.20785E+00  0.17032E+00  0.26256E+00
  0.33999E-01  0.10142E+03    0.34000E-01 -0.16219E-01 -0.17781E-01  0.00000E+00  0.00000E+00  0.00000E+00    0.10142E+03  0.00000E+00  0.00000E+00 -0.21008E+00  0.17085E+00  0.26313E+00
  0.34999E-01  0.10185E+03    0.35000E-01 -0.16696E-01 -0.18304E-01  0.00000E+00  0.00000E+00  0.00000E+00    0.10185E+03  0.00000E+00  0.00000E+00 -0.20982E+00  0.17249E+00  0.26369E+00
  0.35999E-01  0.10228E+03    0.36000E-01 -0.17172E-01 -0.18828E-01  0.00000E+00  0.00000E+00  0.00000E+00    0.10228E+03  0.00000E+00  0.00000E+00 -0.20946E+00  0.17421E+00  0.26423E+00
  0.36999E-01  0.10271E+03    0.37000E-01 -0.17649E-01 -0.19351E-01  0.00000E+00  0.00000E+00  0.00000E+00    0.10271E+03  0.00000E+00  0.00000E+00 -0.20907E+00  0.17595E+00  0.26478E+00
  0.37999E-01  0.10314E+03    0.38000E-01 -0.18125E-01 -0.19875E-01  0.00000E+00  0.00000E+00  0.00000E+00    0.10314E+03  0.00000E+00  0.00000E+00 -0.20865E+00  0.17770E+00  0.26532E+00
  0.38999E-01  0.10356E+03    0.39000E-01 -0.18602E-01 -0.20398E-01  0.00000E+00  0.00000E+00  0.00000E+00    0.10356E+03  0.00000E+00  0.00000E+00 -0.20820E+00  0.17948E+00  0.26586E+00
  0.39999E-01  0.10398E+03    0.40000E-01 -0.19078E-01 -0.20922E-01  0.00000E+00  0.00000E+00  0.00000E+00    0.10398E+03  0.00000E+00  0.00000E+00 -0.20772E+00  0.18127E+00  0.26640E+00
  0.40999E-01  0.10440E+03    0.41000E-01 -0.19554E-01 -0.21446E-01  0.00000E+00  0.00000E+00  0.00000E+00    0.10440E+03  0.00000E+00  0.00000E+00 -0.20721E+00  0.18308E+00  0.26693E+00
  0.41999E-01  0.10483E+03    0.42000E-01 -0.20031E-01 -0.21969E-01  0.00000E+00  0.00000E+00  0.00000E+00    0.10483E+03  0.00000E+00  0.00000E+00 -0.20408E+00  0.18619E+00  0.26739E+00
  0.42999E-01  0.10523E+03    0.43000E-01 -0.20507E-01 -0.22493E-01  0.00000E+00  0.00000E+00  0.00000E+00    0.10522E+03  0.00000E+00  0.00000E+00 -0.20606E+00  0.18681E+00  0.26798E+00
  0.43999E-01  0.10566E+03    0.44000E-01 -0.20983E-01 -0.23017E-01  0.00000E+00  0.00000E+00  0.00000E+00    0.10566E+03  0.00000E+00  0.00000E+00 -0.20293E+00  0.18992E+00  0.26842E+00
  0.44999E-01  0.10604E+03    0.45000E-01 -0.21459E-01 -0.23541E-01  0.00000E+00  0.00000E+00  0.00000E+00    0.10604E+03  0.00000E+00  0.00000E+00 -0.20485E+00  0.19054E+00  0.26902E+00
  0.45999E-01  0.10647E+03    0.46000E-01 -0.21936E-01 -0.24064E-01  0.00000E+00  0.00000E+00  0.00000E+00    0.10647E+03  0.00000E+00  0.00000E+00 -0.20167E+00  0.19371E+00  0.26944E+00
  0.46999E-01  0.10685E+03    0.47000E-01 -0.22412E-01 -0.24588E-01  0.00000E+00  0.00000E+00  0.00000E+00    0.10685E+03  0.00000E+00  0.00000E+00 -0.20353E+00  0.19432E+00  0.27005E+00
  0.47999E-01  0.10725E+03    0.48000E-01 -0.22888E-01 -0.25112E-01  0.00000E+00  0.00000E+00  0.00000E+00    0.10724E+03  0.00000E+00  0.00000E+00 -0.20319E+00  0.19605E+00  0.27053E+00
  0.48999E-01  0.10766E+03    0.49000E-01 -0.23364E-01 -0.25636E-01  0.00000E+00  0.00000E+00  0.00000E+00    0.10765E+03  0.00000E+00  0.00000E+00 -0.20218E+00  0.19810E+00  0.27106E+00
  0.49999E-01  0.10804E+03    0.50000E-01 -0.23840E-01 -0.26160E-01  0.00000E+00  0.00000E+00  0.00000E+00    0.10804E+03  0.00000E+00  0.00000E+00 -0.20173E+00  0.19993E+00  0.27155E+00
  0.50999E-01  0.10845E+03    0.51000E-01 -0.24316E-01 -0.26684E-01  0.00000E+00  0.00000E+00  0.00000E+00    0.10845E+03  0.00000E+00  0.00000E+00 -0.20067E+00  0.20201E+00  0.27207E+00
  0.51999E-01  0.10883E+03    0.52000E-01 -0.24792E-01 -0.27208E-01  0.00000E+00  0.00000E+00  0.00000E+00    0.10883E+03  0.00000E+00  0.00000E+00 -0.20016E+00  0.20387E+00  0.27255E+00
  0.52999E-01  0.10923E+03    0.53000E-01 -0.25268E-01 -0.27732E-01  0.00000E+00  0.00000E+00  0.00000E+00    0.10923E+03  0.00000E+00  0.00000E+00 -0.19905E+00  0.20598E+00  0.27307E+00
  0.53999E-01  0.10961E+03    0.54000E-01 -0.25744E-01 -0.28256E-01  0.00000E+00  0.00000E+00  0.00000E+00    0.10961E+03  0.00000E+00  0.00000E+00 -0.19849E+00  0.20786E+00  0.27355E+00
  0.54999E-01  0.10999E+03    0.55000E-01 -0.26220E-01 -0.28780E-01  0.00000E+00  0.00000E+00  0.00000E+00    0.10999E+03  0.00000E+00  0.00000E+00 -0.19767E+00  0.20986E+00  0.27404E+00
  0.55999E-01  0.11039E+03    0.56000E-01 -0.26696E-01 -0.29304E-01  0.00000E+00  0.00000E+00  0.00000E+00    0.11039E+03  0.00000E+00  0.00000E+00 -0.19644E+00  0.21204E+00  0.27456E+00
  0.56999E-01  0.11076E+03    0.57000E-01 -0.27172E-01 -0.29828E-01  0.00000E+00  0.00000E+00  0.00000E+00    0.11076E+03  0.00000E+00  0.00000E+00 -0.19581E+00  0.21396E+00  0.27504E+00
  0.57999E-01  0.11114E+03    0.58000E-01 -0.27648E-01 -0.30352E-01  0.00000E+00  0.00000E+00  0.00000E+00    0.11113E+03  0.00000E+00  0.00000E+00 -0.19492E+00  0.21600E+00  0.27554E+00
  0.58999E-01  0.11151E+03    0.59000E-01 -0.28124E-01 -0.30876E-01  0.00000E+00  0.00000E+00  0.00000E+00    0.11151E+03  0.00000E+00  0.00000E+00 -0.19397E+00  0.21808E+00  0.27603E+00
  0.59999E-01  0.11189E+03    0.60000E-01 -0.28600E-01 -0.31400E-01  0.00000E+00  0.00000E+00  0.00000E+00    0.11189E+03  0.00000E+00  0.00000E+00 -0.19299E+00  0.22016E+00  0.27652E+00
  0.60999E-01  0.11226E+03    0.61000E-01 -0.29075E-01 -0.31925E-01  0.00000E+00  0.00000E+00  0.00000E+00    0.11226E+03  0.00000E+00  0.00000E+00 -0.19197E+00  0.22227E+00  0.27701E+00
  0.61999E-01  0.11263E+03    0.62000E-01 -0.29551E-01 -0.32449E-01  0.00000E+00  0.00000E+00  0.00000E+00    0.11263E+03  0.00000E+00  0.00000E+00 -0.19095E+00  0.22439E+00  0.27751E+00
  0.62999E-01  0.11300E+03    0.63000E-01 -0.30027E-01 -0.32973E-01  0.00000E+00  0.00000E+00  0.00000E+00    0.11300E+03  0.00000E+00  0.00000E+00 -0.18989E+00  0.22652E+00  0.27801E+00
  0.63999E-01  0.11337E+03    0.64000E-01 -0.30503E-01 -0.33497E-01  0.00000E+00  0.00000E+00  0.00000E+00    0.11337E+03  0.00000E+00  0.00000E+00 -0.18882E+00  0.22866E+00  0.27850E+00
  0.64999E-01  0.11374E+03    0.65000E-01 -0.30978E-01 -0.34022E-01  0.00000E+00  0.00000E+00  0.00000E+00    0.11373E+03  0.00000E+00  0.00000E+00 -0.18772E+00  0.23082E+00  0.27900E+00
  0.65999E-01  0.11410E+03    0.66000E-01 -0.31454E-01 -0.34546E-01  0.00000E+00  0.00000E+00  0.00000E+00    0.11410E+03  0.00000E+00  0.00000E+00 -0.18660E+00  0.23299E+00  0.27950E+00
  0.66999E-01  0.11446E+03    0.67000E-01 -0.31930E-01 -0.35070E-01  0.00000E+00  0.00000E+00  0.00000E+00    0.11446E+03  0.00000E+00  0.00000E+00 -0.18546E+00  0.23518E+00  0.28000E+00
  0.67999E-01  0.11482E+03    0.68000E-01 -0.32405E-01 -0.35595E-01  0.00000E+00  0.00000E+00  0.00000E+00    0.11482E+03  0.00000E+00  0.00000E+00 -0.18431E+00  0.23737E+00  0.28050E+00
  0.68999E-01  0.11518E+03    0.69000E-01 -0.32881E-01 -0.36119E-01  0.00000E+00  0.00000E+00  0.00000E+00    0.11518E+03  0.00000E+00  0.00000E+00 -0.18313E+00  0.23959E+00  0.28101E+00
  0.69999E-01  0.11553E+03    0.70000E-01 -0.33356E-01 -0.36644E-01  0.00000E+00  0.00000E+00  0.00000E+00    0.11553E+03  0.00000E+00  0.00000E+00 -0.18193E+00  0.24181E+00  0.28151E+00
  0.70999E-01  0.11589E+03    0.71000E-01 -0.33832E-01 -0.37168E-01  0.00000E+00  0.00000E+00  0.00000E+00    0.11588E+03  0.00000E+00  0.00000E+00 -0.18071E+00  0.24405E+00  0.28202E+00
  0.71999E-01  0.11624E+03    0.72000E-01 -0.34307E-01 -0.37693E-01  0.00000E+00  0.00000E+00  0.00000E+00    0.11624E+03  0.00000E+00  0.00000E+00 -0.17947E+00  0.24630E+00  0.28253E+00
  0.72998E-01  0.11659E+03    0.73000E-01 -0.34783E-01 -0.38217E-01  0.00000E+00  0.00000E+00  0.00000E+00    0.11659E+03  0.00000E+00  0.00000E+00 -0.17821E+00  0.24857E+00  0.28305E+00
  0.73998E-01  0.11694E+03    0.74000E-01 -0.35258E-01 -0.38742E-01  0.00000E+00  0.00000E+00  0.00000E+00    0.11694E+03  0.00000E+00  0.00000E+00 -0.17083E+00  0.25353E+00  0.28361E+00
  0.74998E-01  0.11726E+03    0.75000E-01 -0.35734E-01 -0.39266E-01  0.00000E+00  0.00000E+00  0.00000E+00    0.11726E+03  0.00000E+00  0.00000E+00 -0.17113E+00  0.25553E+00  0.28418E+00
  0.75998E-01  0.11760E+03    0.76000E-01 -0.36209E-01 -0.39791E-01  0.00000E+00  0.00000E+00  0.00000E+00    0.11760E+03  0.00000E+00  0.00000E+00 -0.16956E+00  0.25793E+00  0.28473E+00
  0.76998E-01  0.11794E+03    0.77000E-01 -0.36685E-01 -0.40315E-01  0.00000E+00  0.00000E+00  0.00000E+00    0.11794E+03  0.00000E+00  0.00000E+00 -0.16822E+00  0.26027E+00  0.28527E+00
  0.77998E-01  0.11828E+03    0.78000E-01 -0.37160E-01 -0.40840E-01  0.00000E+00  0.00000E+00  0.00000E+00    0.11828E+03  0.00000E+00  0.00000E+00 -0.16686E+00  0.26263E+00  0.28581E+00
  0.78998E-01  0.11867E+03    0.79000E-01 -0.37635E-01 -0.41365E-01  0.00000E+00  0.00000E+00  0.00000E+00    0.11867E+03  0.00000E+00  0.00000E+00 -0.16412E+00  0.26553E+00  0.28630E+00
  0.79998E-01  0.11901E+03    0.80000E-01 -0.38111E-01 -0.41889E-01  0.00000E+00  0.00000E+00  0.00000E+00    0.11901E+03  0.00000E+00  0.00000E+00 -0.16310E+00  0.26785E+00  0.28682E+00
  0.80998E-01  0.11935E+03    0.81000E-01 -0.38586E-01 -0.42414E-01  0.00000E+00  0.00000E+00  0.00000E+00    0.11935E+03  0.00000E+00  0.00000E+00 -0.16169E+00  0.27025E+00  0.28737E+00
  0.81998E-01  0.11968E+03    0.82000E-01 -0.39061E-01 -0.42939E-01  0.00000E+00  0.00000E+00  0.00000E+00    0.11968E+03  0.00000E+00  0.00000E+00 -0.16025E+00  0.27268E+00  0.28793E+00
  0.82998E-01  0.12001E+03    0.83000E-01 -0.39536E-01 -0.43464E-01  0.00000E+00  0.00000E+00  0.00000E+00    0.12001E+03  0.00000E+00  0.00000E+00 -0.15881E+00  0.27511E+00  0.28850E+00
  0.83998E-01  0.12034E+03    0.84000E-01 -0.40011E-01 -0.43989E-01  0.00000E+00  0.00000E+00  0.00000E+00    0.12034E+03  0.00000E+00  0.00000E+00 -0.15734E+00  0.27756E+00  0.28907E+00
  0.84998E-01  0.12067E+03    0.85000E-01 -0.40486E-01 -0.44514E-01  0.00000E+00  0.00000E+00  0.00000E+00    0.12067E+03  0.00000E+00  0.00000E+00 -0.15586E+00  0.28003E+00  0.28965E+00
  0.85998E-01  0.12100E+03    0.86000E-01 -0.40962E-01 -0.45038E-01  0.00000E+00  0.00000E+00  0.00000E+00    0.12100E+03  0.00000E+00  0.00000E+00 -0.15437E+00  0.28250E+00  0.29024E+00
  0.86998E-01  0.12132E+03    0.87000E-01 -0.41437E-01 -0.45563E-01  0.00000E+00  0.00000E+00  0.00000E+00    0.12132E+03  0.00000E+00  0.00000E+00 -0.15286E+00  0.28500E+00  0.29084E+00
  0.87998E-01  0.12165E+03    0.88000E-01 -0.41912E-01 -0.46088E-01  0.00000E+00  0.00000E+00  0.00000E+00    0.12165E+03  0.00000E+00  0.00000E+00 -0.15133E+00  0.28751E+00  0.29144E+00
  0.88998E-01  0.12197E+03    0.89000E-01 -0.42387E-01 -0.46613E-01  0.00000E+00  0.00000E+00  0.00000E+00    0.12197E+03  0.00000E+00  0.00000E+00 -0.14978E+00  0.29004E+00  0.29206E+00
  0.89998E-01  0.12229E+03    0.90000E-01 -0.42862E-01 -0.47138E-01  0.00000E+00  0.00000E+00  0.00000E+00    0.12229E+03  0.00000E+00  0.00000E+00 -0.14822E+00  0.29258E+00  0.29268E+00
  0.90998E-01  0.12261E+03    0.91000E-01 -0.43337E-01 -0.47663E-01  0.00000E+00  0.00000E+00  0.00000E+00    0.12261E+03  0.00000E+00  0.00000E+00 -0.14664E+00  0.29514E+00  0.29331E+00
  0.91998E-01  0.12293E+03    0.92000E-01 -0.43812E-01 -0.48188E-01  0.00000E+00  0.00000E+00  0.00000E+00    0.12292E+03  0.00000E+00  0.00000E+00 -0.14505E+00  0.29771E+00  0.29395E+00
  0.92998E-01  0.12324E+03    0.93000E-01 -0.44287E-01 -0.48713E-01  0.00000E+00  0.00000E+00  0.00000E+00    0.12324E+03  0.00000E+00  0.00000E+00 -0.14345E+00  0.30030E+00  0.29461E+00
  0.93998E-01  0.12355E+03    0.94000E-01 -0.44762E-01 -0.49238E-01  0.00000E+00  0.00000E+00  0.00000E+00    0.12355E+03  0.00000E+00  0.00000E+00 -0.14182E+00  0.30290E+00  0.29527E+00
  0.94998E-01  0.12387E+03    0.95000E-01 -0.45236E-01 -0.49764E-01  0.00000E+00  0.00000E+00  0.00000E+00    0.12386E+03  0.00000E+00  0.00000E+00 -0.14019E+00  0.30553E+00  0.29594E+00
  0.95998E-01  0.12418E+03    0.96000E-01 -0.45711E-01 -0.50289E-01  0.00000E+00  0.00000E+00  0.00000E+00    0.12417E+03  0.00000E+00  0.00000E+00 -0.13854E+00  0.30817E+00  0.29663E+00
  0.96998E-01  0.12449E+03    0.97000E-01 -0.46186E-01 -0.50814E-01  0.00000E+00  0.00000E+00  0.00000E+00    0.12448E+03  0.00000E+00  0.00000E+00 -0.13687E+00  0.31082E+00  0.29732E+00
  0.97998E-01  0.12479E+03    0.98000E-01 -0.46661E-01 -0.51339E-01  0.00000E+00  0.00000E+00  0.00000E+00    0.12479E+03  0.00000E+00  0.00000E+00 -0.13520E+00  0.31350E+00  0.29803E+00
  0.98998E-01  0.12510E+03    0.99000E-01 -0.47136E-01 -0.51864E-01  0.00000E+00  0.00000E+00  0.00000E+00    0.12510E+03  0.00000E+00  0.00000E+00 -0.13350E+00  0.31619E+00  0.29876E+00
  0.99998E-01  0.12540E+03    0.10000E+00 -0.47611E-01 -0.52389E-01  0.00000E+00  0.00000E+00  0.00000E+00    0.12540E+03  0.00000E+00  0.00000E+00 -0.13180E+00  0.31890E+00  0.29949E+00
