          Evm          Svm            E11          E22          E33          E23          E13          E12         SCAU11       SCAU22       SCAU33       SCAU23       SCAU13       SCAU12      TEMP
  0.00000E+00  0.14032E+03    0.00000E+00  0.00000E+00  0.00000E+00  0.00000E+00  0.00000E+00  0.00000E+00    0.14032E+03  0.00000E+00  0.00000E+00 -0.32544E+00  0.20177E+00  0.38772E+00
  0.99998E-03  0.14095E+03    0.10000E-02 -0.47967E-03 -0.52033E-03  0.00000E+00  0.00000E+00  0.00000E+00    0.14095E+03  0.00000E+00  0.00000E+00 -0.33061E+00  0.20835E+00  0.39127E+00
  0.20000E-02  0.14168E+03    0.20000E-02 -0.95795E-03 -0.10421E-02  0.00000E+00  0.00000E+00  0.00000E+00    0.14168E+03  0.00000E+00  0.00000E+00 -0.32897E+00  0.20899E+00  0.39477E+00
  0.29999E-02  0.14243E+03    0.30000E-02 -0.14359E-02 -0.15641E-02  0.00000E+00  0.00000E+00  0.00000E+00    0.14243E+03  0.00000E+00  0.00000E+00 -0.33007E+00  0.21067E+00  0.39676E+00
  0.39999E-02  0.14317E+03    0.40000E-02 -0.19135E-02 -0.20865E-02  0.00000E+00  0.00000E+00  0.00000E+00    0.14317E+03  0.00000E+00  0.00000E+00 -0.33100E+00  0.21230E+00  0.39822E+00
  0.49999E-02  0.14390E+03    0.50000E-02 -0.23911E-02 -0.26089E-02  0.00000E+00  0.00000E+00  0.00000E+00    0.14390E+03  0.00000E+00  0.00000E+00 -0.33187E+00  0.21398E+00  0.39952E+00
  0.59999E-02  0.14463E+03    0.60000E-02 -0.28685E-02 -0.31315E-02  0.00000E+00  0.00000E+00  0.00000E+00    0.14463E+03  0.00000E+00  0.00000E+00 -0.33267E+00  0.21571E+00  0.40073E+00
  0.69998E-02  0.14535E+03    0.70000E-02 -0.33457E-02 -0.36543E-02  0.00000E+00  0.00000E+00  0.00000E+00    0.14535E+03  0.00000E+00  0.00000E+00 -0.33341E+00  0.21748E+00  0.40187E+00
  0.79998E-02  0.14607E+03    0.80000E-02 -0.38230E-02 -0.41770E-02  0.00000E+00  0.00000E+00  0.00000E+00    0.14607E+03  0.00000E+00  0.00000E+00 -0.33410E+00  0.21928E+00  0.40295E+00
  0.89998E-02  0.14679E+03    0.90000E-02 -0.43001E-02 -0.46999E-02  0.00000E+00  0.00000E+00  0.00000E+00    0.14678E+03  0.00000E+00  0.00000E+00 -0.33472E+00  0.22112E+00  0.40399E+00
  0.99998E-02  0.14750E+03    0.10000E-01 -0.47773E-02 -0.52227E-02  0.00000E+00  0.00000E+00  0.00000E+00    0.14749E+03  0.00000E+00  0.00000E+00 -0.33529E+00  0.22300E+00  0.40500E+00
  0.11000E-01  0.14820E+03    0.11000E-01 -0.52543E-02 -0.57457E-02  0.00000E+00  0.00000E+00  0.00000E+00    0.14820E+03  0.00000E+00  0.00000E+00 -0.33580E+00  0.22492E+00  0.40598E+00
  0.12000E-01  0.14890E+03    0.12000E-01 -0.57314E-02 -0.62686E-02  0.00000E+00  0.00000E+00  0.00000E+00    0.14890E+03  0.00000E+00  0.00000E+00 -0.33626E+00  0.22686E+00  0.40693E+00
  0.13000E-01  0.14960E+03    0.13000E-01 -0.62084E-02 -0.67916E-02  0.00000E+00  0.00000E+00  0.00000E+00    0.14960E+03  0.00000E+00  0.00000E+00 -0.33666E+00  0.22884E+00  0.40785E+00
  0.14000E-01  0.15029E+03    0.14000E-01 -0.66854E-02 -0.73146E-02  0.00000E+00  0.00000E+00  0.00000E+00    0.15029E+03  0.00000E+00  0.00000E+00 -0.33700E+00  0.23085E+00  0.40876E+00
  0.15000E-01  0.15098E+03    0.15000E-01 -0.71623E-02 -0.78377E-02  0.00000E+00  0.00000E+00  0.00000E+00    0.15098E+03  0.00000E+00  0.00000E+00 -0.33729E+00  0.23289E+00  0.40965E+00
  0.16000E-01  0.15167E+03    0.16000E-01 -0.76393E-02 -0.83607E-02  0.00000E+00  0.00000E+00  0.00000E+00    0.15166E+03  0.00000E+00  0.00000E+00 -0.33751E+00  0.23497E+00  0.41053E+00
  0.17000E-01  0.15228E+03    0.17000E-01 -0.81162E-02 -0.88838E-02  0.00000E+00  0.00000E+00  0.00000E+00    0.15228E+03  0.00000E+00  0.00000E+00 -0.34136E+00  0.23544E+00  0.41127E+00
  0.18000E-01  0.15301E+03    0.18000E-01 -0.85931E-02 -0.94069E-02  0.00000E+00  0.00000E+00  0.00000E+00    0.15300E+03  0.00000E+00  0.00000E+00 -0.33803E+00  0.23894E+00  0.41222E+00
  0.19000E-01  0.15363E+03    0.19000E-01 -0.90699E-02 -0.99301E-02  0.00000E+00  0.00000E+00  0.00000E+00    0.15363E+03  0.00000E+00  0.00000E+00 -0.34161E+00  0.23971E+00  0.41295E+00
  0.20000E-01  0.15435E+03    0.20000E-01 -0.95468E-02 -0.10453E-01  0.00000E+00  0.00000E+00  0.00000E+00    0.15434E+03  0.00000E+00  0.00000E+00 -0.33813E+00  0.24331E+00  0.41385E+00
  0.21000E-01  0.15497E+03    0.21000E-01 -0.10024E-01 -0.10976E-01  0.00000E+00  0.00000E+00  0.00000E+00    0.15496E+03  0.00000E+00  0.00000E+00 -0.34162E+00  0.24411E+00  0.41459E+00
  0.22000E-01  0.15567E+03    0.22000E-01 -0.10500E-01 -0.11500E-01  0.00000E+00  0.00000E+00  0.00000E+00    0.15567E+03  0.00000E+00  0.00000E+00 -0.33801E+00  0.24780E+00  0.41544E+00
  0.22999E-01  0.15629E+03    0.23000E-01 -0.10977E-01 -0.12023E-01  0.00000E+00  0.00000E+00  0.00000E+00    0.15628E+03  0.00000E+00  0.00000E+00 -0.34141E+00  0.24862E+00  0.41619E+00
  0.23999E-01  0.15698E+03    0.24000E-01 -0.11454E-01 -0.12546E-01  0.00000E+00  0.00000E+00  0.00000E+00    0.15698E+03  0.00000E+00  0.00000E+00 -0.33769E+00  0.25240E+00  0.41699E+00
  0.24999E-01  0.15759E+03    0.25000E-01 -0.11931E-01 -0.13069E-01  0.00000E+00  0.00000E+00  0.00000E+00    0.15758E+03  0.00000E+00  0.00000E+00 -0.34100E+00  0.25326E+00  0.41774E+00
  0.25999E-01  0.15827E+03    0.26000E-01 -0.12407E-01 -0.13593E-01  0.00000E+00  0.00000E+00  0.00000E+00    0.15827E+03  0.00000E+00  0.00000E+00 -0.33717E+00  0.25712E+00  0.41850E+00
  0.26999E-01  0.15888E+03    0.27000E-01 -0.12884E-01 -0.14116E-01  0.00000E+00  0.00000E+00  0.00000E+00    0.15887E+03  0.00000E+00  0.00000E+00 -0.34040E+00  0.25800E+00  0.41925E+00
  0.27999E-01  0.15955E+03    0.28000E-01 -0.13361E-01 -0.14639E-01  0.00000E+00  0.00000E+00  0.00000E+00    0.15955E+03  0.00000E+00  0.00000E+00 -0.33644E+00  0.26197E+00  0.41997E+00
  0.28999E-01  0.16015E+03    0.29000E-01 -0.13837E-01 -0.15163E-01  0.00000E+00  0.00000E+00  0.00000E+00    0.16014E+03  0.00000E+00  0.00000E+00 -0.33959E+00  0.26287E+00  0.42073E+00
  0.29999E-01  0.16082E+03    0.30000E-01 -0.14314E-01 -0.15686E-01  0.00000E+00  0.00000E+00  0.00000E+00    0.16081E+03  0.00000E+00  0.00000E+00 -0.33553E+00  0.26692E+00  0.42141E+00
  0.30999E-01  0.16140E+03    0.31000E-01 -0.14791E-01 -0.16209E-01  0.00000E+00  0.00000E+00  0.00000E+00    0.16140E+03  0.00000E+00  0.00000E+00 -0.33859E+00  0.26784E+00  0.42217E+00
  0.31999E-01  0.16206E+03    0.32000E-01 -0.15267E-01 -0.16733E-01  0.00000E+00  0.00000E+00  0.00000E+00    0.16206E+03  0.00000E+00  0.00000E+00 -0.33443E+00  0.27199E+00  0.42282E+00
  0.32999E-01  0.16265E+03    0.33000E-01 -0.15744E-01 -0.17256E-01  0.00000E+00  0.00000E+00  0.00000E+00    0.16264E+03  0.00000E+00  0.00000E+00 -0.33740E+00  0.27293E+00  0.42359E+00
  0.33999E-01  0.16325E+03    0.34000E-01 -0.16220E-01 -0.17780E-01  0.00000E+00  0.00000E+00  0.00000E+00    0.16324E+03  0.00000E+00  0.00000E+00 -0.33723E+00  0.27528E+00  0.42425E+00
  0.34999E-01  0.16388E+03    0.35000E-01 -0.16697E-01 -0.18303E-01  0.00000E+00  0.00000E+00  0.00000E+00    0.16387E+03  0.00000E+00  0.00000E+00 -0.33615E+00  0.27801E+00  0.42497E+00
  0.35999E-01  0.16447E+03    0.36000E-01 -0.17173E-01 -0.18827E-01  0.00000E+00  0.00000E+00  0.00000E+00    0.16446E+03  0.00000E+00  0.00000E+00 -0.33580E+00  0.28051E+00  0.42561E+00
  0.36999E-01  0.16509E+03    0.37000E-01 -0.17650E-01 -0.19350E-01  0.00000E+00  0.00000E+00  0.00000E+00    0.16509E+03  0.00000E+00  0.00000E+00 -0.33461E+00  0.28331E+00  0.42633E+00
  0.37999E-01  0.16567E+03    0.38000E-01 -0.18126E-01 -0.19874E-01  0.00000E+00  0.00000E+00  0.00000E+00    0.16567E+03  0.00000E+00  0.00000E+00 -0.33416E+00  0.28585E+00  0.42695E+00
  0.38999E-01  0.16627E+03    0.39000E-01 -0.18602E-01 -0.20398E-01  0.00000E+00  0.00000E+00  0.00000E+00    0.16627E+03  0.00000E+00  0.00000E+00 -0.33336E+00  0.28855E+00  0.42761E+00
  0.39999E-01  0.16688E+03    0.40000E-01 -0.19079E-01 -0.20921E-01  0.00000E+00  0.00000E+00  0.00000E+00    0.16688E+03  0.00000E+00  0.00000E+00 -0.33197E+00  0.29145E+00  0.42832E+00
  0.40999E-01  0.16746E+03    0.41000E-01 -0.19555E-01 -0.21445E-01  0.00000E+00  0.00000E+00  0.00000E+00    0.16745E+03  0.00000E+00  0.00000E+00 -0.33140E+00  0.29406E+00  0.42894E+00
  0.41999E-01  0.16804E+03    0.42000E-01 -0.20031E-01 -0.21969E-01  0.00000E+00  0.00000E+00  0.00000E+00    0.16804E+03  0.00000E+00  0.00000E+00 -0.33047E+00  0.29682E+00  0.42958E+00
  0.42999E-01  0.16863E+03    0.43000E-01 -0.20508E-01 -0.22492E-01  0.00000E+00  0.00000E+00  0.00000E+00    0.16862E+03  0.00000E+00  0.00000E+00 -0.32943E+00  0.29963E+00  0.43023E+00
  0.43999E-01  0.16921E+03    0.44000E-01 -0.20984E-01 -0.23016E-01  0.00000E+00  0.00000E+00  0.00000E+00    0.16920E+03  0.00000E+00  0.00000E+00 -0.32835E+00  0.30246E+00  0.43088E+00
  0.44999E-01  0.16979E+03    0.45000E-01 -0.21460E-01 -0.23540E-01  0.00000E+00  0.00000E+00  0.00000E+00    0.16978E+03  0.00000E+00  0.00000E+00 -0.32722E+00  0.30532E+00  0.43152E+00
  0.45999E-01  0.17036E+03    0.46000E-01 -0.21936E-01 -0.24064E-01  0.00000E+00  0.00000E+00  0.00000E+00    0.17036E+03  0.00000E+00  0.00000E+00 -0.32605E+00  0.30821E+00  0.43216E+00
  0.46999E-01  0.17093E+03    0.47000E-01 -0.22412E-01 -0.24588E-01  0.00000E+00  0.00000E+00  0.00000E+00    0.17093E+03  0.00000E+00  0.00000E+00 -0.32485E+00  0.31111E+00  0.43279E+00
  0.47999E-01  0.17150E+03    0.48000E-01 -0.22889E-01 -0.25111E-01  0.00000E+00  0.00000E+00  0.00000E+00    0.17150E+03  0.00000E+00  0.00000E+00 -0.32360E+00  0.31403E+00  0.43343E+00
  0.48999E-01  0.17207E+03    0.49000E-01 -0.23365E-01 -0.25635E-01  0.00000E+00  0.00000E+00  0.00000E+00    0.17206E+03  0.00000E+00  0.00000E+00 -0.32232E+00  0.31698E+00  0.43406E+00
  0.49999E-01  0.17263E+03    0.50000E-01 -0.23841E-01 -0.26159E-01  0.00000E+00  0.00000E+00  0.00000E+00    0.17262E+03  0.00000E+00  0.00000E+00 -0.32100E+00  0.31996E+00  0.43469E+00
  0.50999E-01  0.17319E+03    0.51000E-01 -0.24317E-01 -0.26683E-01  0.00000E+00  0.00000E+00  0.00000E+00    0.17318E+03  0.00000E+00  0.00000E+00 -0.31965E+00  0.32296E+00  0.43531E+00
  0.51999E-01  0.17374E+03    0.52000E-01 -0.24793E-01 -0.27207E-01  0.00000E+00  0.00000E+00  0.00000E+00    0.17374E+03  0.00000E+00  0.00000E+00 -0.31826E+00  0.32598E+00  0.43594E+00
  0.52999E-01  0.17429E+03    0.53000E-01 -0.25269E-01 -0.27731E-01  0.00000E+00  0.00000E+00  0.00000E+00    0.17429E+03  0.00000E+00  0.00000E+00 -0.31684E+00  0.32902E+00  0.43656E+00
  0.53999E-01  0.17484E+03    0.54000E-01 -0.25745E-01 -0.28255E-01  0.00000E+00  0.00000E+00  0.00000E+00    0.17484E+03  0.00000E+00  0.00000E+00 -0.31537E+00  0.33209E+00  0.43719E+00
  0.54999E-01  0.17539E+03    0.55000E-01 -0.26221E-01 -0.28779E-01  0.00000E+00  0.00000E+00  0.00000E+00    0.17539E+03  0.00000E+00  0.00000E+00 -0.31387E+00  0.33517E+00  0.43781E+00
  0.55999E-01  0.17593E+03    0.56000E-01 -0.26697E-01 -0.29303E-01  0.00000E+00  0.00000E+00  0.00000E+00    0.17593E+03  0.00000E+00  0.00000E+00 -0.31234E+00  0.33827E+00  0.43843E+00
  0.56999E-01  0.17647E+03    0.57000E-01 -0.27173E-01 -0.29827E-01  0.00000E+00  0.00000E+00  0.00000E+00    0.17647E+03  0.00000E+00  0.00000E+00 -0.31077E+00  0.34140E+00  0.43906E+00
  0.57999E-01  0.17701E+03    0.58000E-01 -0.27648E-01 -0.30352E-01  0.00000E+00  0.00000E+00  0.00000E+00    0.17701E+03  0.00000E+00  0.00000E+00 -0.30917E+00  0.34455E+00  0.43968E+00
  0.58999E-01  0.17755E+03    0.59000E-01 -0.28124E-01 -0.30876E-01  0.00000E+00  0.00000E+00  0.00000E+00    0.17754E+03  0.00000E+00  0.00000E+00 -0.30753E+00  0.34772E+00  0.44031E+00
  0.59999E-01  0.17808E+03    0.60000E-01 -0.28600E-01 -0.31400E-01  0.00000E+00  0.00000E+00  0.00000E+00    0.17807E+03  0.00000E+00  0.00000E+00 -0.30586E+00  0.35091E+00  0.44094E+00
  0.60999E-01  0.17861E+03    0.61000E-01 -0.29076E-01 -0.31924E-01  0.00000E+00  0.00000E+00  0.00000E+00    0.17860E+03  0.00000E+00  0.00000E+00 -0.30416E+00  0.35412E+00  0.44157E+00
  0.61999E-01  0.17915E+03    0.62000E-01 -0.29552E-01 -0.32448E-01  0.00000E+00  0.00000E+00  0.00000E+00    0.17914E+03  0.00000E+00  0.00000E+00 -0.29373E+00  0.36079E+00  0.44232E+00
  0.62999E-01  0.17970E+03    0.63000E-01 -0.30027E-01 -0.32973E-01  0.00000E+00  0.00000E+00  0.00000E+00    0.17970E+03  0.00000E+00  0.00000E+00 -0.29241E+00  0.36436E+00  0.44293E+00
  0.63999E-01  0.18023E+03    0.64000E-01 -0.30503E-01 -0.33497E-01  0.00000E+00  0.00000E+00  0.00000E+00    0.18022E+03  0.00000E+00  0.00000E+00 -0.29072E+00  0.36769E+00  0.44355E+00
  0.64999E-01  0.18074E+03    0.65000E-01 -0.30979E-01 -0.34021E-01  0.00000E+00  0.00000E+00  0.00000E+00    0.18074E+03  0.00000E+00  0.00000E+00 -0.28887E+00  0.37103E+00  0.44418E+00
  0.65999E-01  0.18126E+03    0.66000E-01 -0.31454E-01 -0.34546E-01  0.00000E+00  0.00000E+00  0.00000E+00    0.18125E+03  0.00000E+00  0.00000E+00 -0.28701E+00  0.37439E+00  0.44482E+00
  0.66999E-01  0.18177E+03    0.67000E-01 -0.31930E-01 -0.35070E-01  0.00000E+00  0.00000E+00  0.00000E+00    0.18176E+03  0.00000E+00  0.00000E+00 -0.28511E+00  0.37777E+00  0.44546E+00
  0.67999E-01  0.18228E+03    0.68000E-01 -0.32406E-01 -0.35594E-01  0.00000E+00  0.00000E+00  0.00000E+00    0.18227E+03  0.00000E+00  0.00000E+00 -0.28319E+00  0.38117E+00  0.44611E+00
  0.68999E-01  0.18278E+03    0.69000E-01 -0.32881E-01 -0.36119E-01  0.00000E+00  0.00000E+00  0.00000E+00    0.18278E+03  0.00000E+00  0.00000E+00 -0.28123E+00  0.38458E+00  0.44676E+00
  0.69999E-01  0.18329E+03    0.70000E-01 -0.33357E-01 -0.36643E-01  0.00000E+00  0.00000E+00  0.00000E+00    0.18328E+03  0.00000E+00  0.00000E+00 -0.27925E+00  0.38802E+00  0.44742E+00
  0.70999E-01  0.18379E+03    0.71000E-01 -0.33832E-01 -0.37168E-01  0.00000E+00  0.00000E+00  0.00000E+00    0.18378E+03  0.00000E+00  0.00000E+00 -0.27724E+00  0.39148E+00  0.44808E+00
  0.71998E-01  0.18428E+03    0.72000E-01 -0.34308E-01 -0.37692E-01  0.00000E+00  0.00000E+00  0.00000E+00    0.18428E+03  0.00000E+00  0.00000E+00 -0.27519E+00  0.39496E+00  0.44874E+00
  0.72998E-01  0.18478E+03    0.73000E-01 -0.34783E-01 -0.38217E-01  0.00000E+00  0.00000E+00  0.00000E+00    0.18478E+03  0.00000E+00  0.00000E+00 -0.27312E+00  0.39846E+00  0.44942E+00
  0.73998E-01  0.18527E+03    0.74000E-01 -0.35258E-01 -0.38742E-01  0.00000E+00  0.00000E+00  0.00000E+00    0.18527E+03  0.00000E+00  0.00000E+00 -0.27102E+00  0.40198E+00  0.45010E+00
  0.74998E-01  0.18576E+03    0.75000E-01 -0.35734E-01 -0.39266E-01  0.00000E+00  0.00000E+00  0.00000E+00    0.18576E+03  0.00000E+00  0.00000E+00 -0.26890E+00  0.40552E+00  0.45078E+00
  0.75998E-01  0.18625E+03    0.76000E-01 -0.36209E-01 -0.39791E-01  0.00000E+00  0.00000E+00  0.00000E+00    0.18625E+03  0.00000E+00  0.00000E+00 -0.26674E+00  0.40909E+00  0.45148E+00
  0.76998E-01  0.18673E+03    0.77000E-01 -0.36684E-01 -0.40316E-01  0.00000E+00  0.00000E+00  0.00000E+00    0.18673E+03  0.00000E+00  0.00000E+00 -0.26456E+00  0.41267E+00  0.45218E+00
  0.77998E-01  0.18722E+03    0.78000E-01 -0.37160E-01 -0.40840E-01  0.00000E+00  0.00000E+00  0.00000E+00    0.18721E+03  0.00000E+00  0.00000E+00 -0.26235E+00  0.41628E+00  0.45290E+00
  0.78998E-01  0.18770E+03    0.79000E-01 -0.37635E-01 -0.41365E-01  0.00000E+00  0.00000E+00  0.00000E+00    0.18769E+03  0.00000E+00  0.00000E+00 -0.26012E+00  0.41990E+00  0.45362E+00
  0.79998E-01  0.18817E+03    0.80000E-01 -0.38110E-01 -0.41890E-01  0.00000E+00  0.00000E+00  0.00000E+00    0.18817E+03  0.00000E+00  0.00000E+00 -0.25786E+00  0.42355E+00  0.45435E+00
  0.80998E-01  0.18865E+03    0.81000E-01 -0.38586E-01 -0.42414E-01  0.00000E+00  0.00000E+00  0.00000E+00    0.18864E+03  0.00000E+00  0.00000E+00 -0.25557E+00  0.42722E+00  0.45509E+00
  0.81998E-01  0.18912E+03    0.82000E-01 -0.39061E-01 -0.42939E-01  0.00000E+00  0.00000E+00  0.00000E+00    0.18912E+03  0.00000E+00  0.00000E+00 -0.25326E+00  0.43091E+00  0.45584E+00
  0.82998E-01  0.18959E+03    0.83000E-01 -0.39536E-01 -0.43464E-01  0.00000E+00  0.00000E+00  0.00000E+00    0.18959E+03  0.00000E+00  0.00000E+00 -0.25092E+00  0.43463E+00  0.45661E+00
  0.83998E-01  0.19006E+03    0.84000E-01 -0.40011E-01 -0.43989E-01  0.00000E+00  0.00000E+00  0.00000E+00    0.19005E+03  0.00000E+00  0.00000E+00 -0.24856E+00  0.43836E+00  0.45738E+00
  0.84998E-01  0.19052E+03    0.85000E-01 -0.40486E-01 -0.44514E-01  0.00000E+00  0.00000E+00  0.00000E+00    0.19052E+03  0.00000E+00  0.00000E+00 -0.24617E+00  0.44212E+00  0.45817E+00
  0.85998E-01  0.19099E+03    0.86000E-01 -0.40961E-01 -0.45039E-01  0.00000E+00  0.00000E+00  0.00000E+00    0.19098E+03  0.00000E+00  0.00000E+00 -0.24376E+00  0.44590E+00  0.45897E+00
  0.86998E-01  0.19145E+03    0.87000E-01 -0.41436E-01 -0.45564E-01  0.00000E+00  0.00000E+00  0.00000E+00    0.19144E+03  0.00000E+00  0.00000E+00 -0.24133E+00  0.44971E+00  0.45978E+00
  0.87998E-01  0.19191E+03    0.88000E-01 -0.41911E-01 -0.46089E-01  0.00000E+00  0.00000E+00  0.00000E+00    0.19190E+03  0.00000E+00  0.00000E+00 -0.23887E+00  0.45354E+00  0.46061E+00
  0.88998E-01  0.19236E+03    0.89000E-01 -0.42386E-01 -0.46614E-01  0.00000E+00  0.00000E+00  0.00000E+00    0.19236E+03  0.00000E+00  0.00000E+00 -0.23639E+00  0.45739E+00  0.46145E+00
  0.89998E-01  0.19282E+03    0.90000E-01 -0.42861E-01 -0.47139E-01  0.00000E+00  0.00000E+00  0.00000E+00    0.19281E+03  0.00000E+00  0.00000E+00 -0.23388E+00  0.46127E+00  0.46231E+00
  0.90998E-01  0.19327E+03    0.91000E-01 -0.43336E-01 -0.47664E-01  0.00000E+00  0.00000E+00  0.00000E+00    0.19326E+03  0.00000E+00  0.00000E+00 -0.23136E+00  0.46517E+00  0.46319E+00
  0.91998E-01  0.19372E+03    0.92000E-01 -0.43811E-01 -0.48189E-01  0.00000E+00  0.00000E+00  0.00000E+00    0.19371E+03  0.00000E+00  0.00000E+00 -0.22881E+00  0.46909E+00  0.46408E+00
  0.92998E-01  0.19416E+03    0.93000E-01 -0.44286E-01 -0.48714E-01  0.00000E+00  0.00000E+00  0.00000E+00    0.19416E+03  0.00000E+00  0.00000E+00 -0.22624E+00  0.47304E+00  0.46498E+00
  0.93998E-01  0.19461E+03    0.94000E-01 -0.44761E-01 -0.49239E-01  0.00000E+00  0.00000E+00  0.00000E+00    0.19460E+03  0.00000E+00  0.00000E+00 -0.22365E+00  0.47702E+00  0.46591E+00
  0.94998E-01  0.19505E+03    0.95000E-01 -0.45236E-01 -0.49764E-01  0.00000E+00  0.00000E+00  0.00000E+00    0.19505E+03  0.00000E+00  0.00000E+00 -0.22103E+00  0.48102E+00  0.46685E+00
  0.95998E-01  0.19549E+03    0.96000E-01 -0.45711E-01 -0.50289E-01  0.00000E+00  0.00000E+00  0.00000E+00    0.19549E+03  0.00000E+00  0.00000E+00 -0.21840E+00  0.48505E+00  0.46781E+00
  0.96998E-01  0.19593E+03    0.97000E-01 -0.46186E-01 -0.50814E-01  0.00000E+00  0.00000E+00  0.00000E+00    0.19593E+03  0.00000E+00  0.00000E+00 -0.21575E+00  0.48910E+00  0.46879E+00
  0.97998E-01  0.19637E+03    0.98000E-01 -0.46661E-01 -0.51339E-01  0.00000E+00  0.00000E+00  0.00000E+00    0.19636E+03  0.00000E+00  0.00000E+00 -0.21307E+00  0.49318E+00  0.46978E+00
  0.98998E-01  0.19680E+03    0.99000E-01 -0.47135E-01 -0.51865E-01  0.00000E+00  0.00000E+00  0.00000E+00    0.19680E+03  0.00000E+00  0.00000E+00 -0.21038E+00  0.49728E+00  0.47080E+00
  0.99998E-01  0.19723E+03    0.10000E+00 -0.47610E-01 -0.52390E-01  0.00000E+00  0.00000E+00  0.00000E+00    0.19723E+03  0.00000E+00  0.00000E+00 -0.20767E+00  0.50141E+00  0.47184E+00
