          Evm          Svm            E11          E22          E33          E23          E13          E12         SCAU11       SCAU22       SCAU33       SCAU23       SCAU13       SCAU12      TEMP
  0.00000E+00  0.11734E+03    0.00000E+00  0.00000E+00  0.00000E+00  0.00000E+00  0.00000E+00  0.00000E+00    0.11734E+03  0.00000E+00  0.00000E+00 -0.27215E+00  0.16873E+00  0.32423E+00
  0.99998E-03  0.11805E+03    0.10000E-02 -0.47967E-03 -0.52033E-03  0.00000E+00  0.00000E+00  0.00000E+00    0.11805E+03  0.00000E+00  0.00000E+00 -0.27780E+00  0.17273E+00  0.32840E+00
  0.20000E-02  0.11872E+03    0.20000E-02 -0.95784E-03 -0.10422E-02  0.00000E+00  0.00000E+00  0.00000E+00    0.11872E+03  0.00000E+00  0.00000E+00 -0.27814E+00  0.17402E+00  0.33112E+00
  0.29999E-02  0.11945E+03    0.30000E-02 -0.14356E-02 -0.15644E-02  0.00000E+00  0.00000E+00  0.00000E+00    0.11944E+03  0.00000E+00  0.00000E+00 -0.27702E+00  0.17660E+00  0.33282E+00
  0.39999E-02  0.12019E+03    0.40000E-02 -0.19132E-02 -0.20868E-02  0.00000E+00  0.00000E+00  0.00000E+00    0.12019E+03  0.00000E+00  0.00000E+00 -0.27816E+00  0.17826E+00  0.33443E+00
  0.49999E-02  0.12092E+03    0.50000E-02 -0.23906E-02 -0.26094E-02  0.00000E+00  0.00000E+00  0.00000E+00    0.12092E+03  0.00000E+00  0.00000E+00 -0.27923E+00  0.17983E+00  0.33578E+00
  0.59999E-02  0.12165E+03    0.60000E-02 -0.28679E-02 -0.31321E-02  0.00000E+00  0.00000E+00  0.00000E+00    0.12165E+03  0.00000E+00  0.00000E+00 -0.28022E+00  0.18143E+00  0.33705E+00
  0.69998E-02  0.12237E+03    0.70000E-02 -0.33452E-02 -0.36548E-02  0.00000E+00  0.00000E+00  0.00000E+00    0.12237E+03  0.00000E+00  0.00000E+00 -0.28115E+00  0.18306E+00  0.33827E+00
  0.79998E-02  0.12309E+03    0.80000E-02 -0.38224E-02 -0.41776E-02  0.00000E+00  0.00000E+00  0.00000E+00    0.12309E+03  0.00000E+00  0.00000E+00 -0.28203E+00  0.18473E+00  0.33945E+00
  0.89998E-02  0.12381E+03    0.90000E-02 -0.42995E-02 -0.47005E-02  0.00000E+00  0.00000E+00  0.00000E+00    0.12380E+03  0.00000E+00  0.00000E+00 -0.28286E+00  0.18642E+00  0.34059E+00
  0.99998E-02  0.12451E+03    0.10000E-01 -0.47766E-02 -0.52234E-02  0.00000E+00  0.00000E+00  0.00000E+00    0.12451E+03  0.00000E+00  0.00000E+00 -0.28363E+00  0.18815E+00  0.34170E+00
  0.11000E-01  0.12522E+03    0.11000E-01 -0.52537E-02 -0.57463E-02  0.00000E+00  0.00000E+00  0.00000E+00    0.12522E+03  0.00000E+00  0.00000E+00 -0.28434E+00  0.18990E+00  0.34279E+00
  0.12000E-01  0.12592E+03    0.12000E-01 -0.57307E-02 -0.62693E-02  0.00000E+00  0.00000E+00  0.00000E+00    0.12592E+03  0.00000E+00  0.00000E+00 -0.28501E+00  0.19169E+00  0.34386E+00
  0.13000E-01  0.12662E+03    0.13000E-01 -0.62077E-02 -0.67923E-02  0.00000E+00  0.00000E+00  0.00000E+00    0.12661E+03  0.00000E+00  0.00000E+00 -0.28562E+00  0.19351E+00  0.34490E+00
  0.14000E-01  0.12731E+03    0.14000E-01 -0.66847E-02 -0.73153E-02  0.00000E+00  0.00000E+00  0.00000E+00    0.12731E+03  0.00000E+00  0.00000E+00 -0.28618E+00  0.19535E+00  0.34593E+00
  0.15000E-01  0.12800E+03    0.15000E-01 -0.71617E-02 -0.78383E-02  0.00000E+00  0.00000E+00  0.00000E+00    0.12799E+03  0.00000E+00  0.00000E+00 -0.28668E+00  0.19722E+00  0.34694E+00
  0.16000E-01  0.12868E+03    0.16000E-01 -0.76386E-02 -0.83614E-02  0.00000E+00  0.00000E+00  0.00000E+00    0.12868E+03  0.00000E+00  0.00000E+00 -0.28714E+00  0.19912E+00  0.34794E+00
  0.17000E-01  0.12936E+03    0.17000E-01 -0.81155E-02 -0.88845E-02  0.00000E+00  0.00000E+00  0.00000E+00    0.12936E+03  0.00000E+00  0.00000E+00 -0.28754E+00  0.20106E+00  0.34892E+00
  0.18000E-01  0.13004E+03    0.18000E-01 -0.85924E-02 -0.94076E-02  0.00000E+00  0.00000E+00  0.00000E+00    0.13003E+03  0.00000E+00  0.00000E+00 -0.28789E+00  0.20301E+00  0.34989E+00
  0.19000E-01  0.13071E+03    0.19000E-01 -0.90692E-02 -0.99308E-02  0.00000E+00  0.00000E+00  0.00000E+00    0.13070E+03  0.00000E+00  0.00000E+00 -0.28819E+00  0.20500E+00  0.35084E+00
  0.20000E-01  0.13137E+03    0.20000E-01 -0.95461E-02 -0.10454E-01  0.00000E+00  0.00000E+00  0.00000E+00    0.13137E+03  0.00000E+00  0.00000E+00 -0.28844E+00  0.20702E+00  0.35178E+00
  0.21000E-01  0.13204E+03    0.21000E-01 -0.10023E-01 -0.10977E-01  0.00000E+00  0.00000E+00  0.00000E+00    0.13204E+03  0.00000E+00  0.00000E+00 -0.28864E+00  0.20906E+00  0.35271E+00
  0.22000E-01  0.13270E+03    0.22000E-01 -0.10500E-01 -0.11500E-01  0.00000E+00  0.00000E+00  0.00000E+00    0.13269E+03  0.00000E+00  0.00000E+00 -0.28879E+00  0.21112E+00  0.35363E+00
  0.22999E-01  0.13335E+03    0.23000E-01 -0.10976E-01 -0.12024E-01  0.00000E+00  0.00000E+00  0.00000E+00    0.13335E+03  0.00000E+00  0.00000E+00 -0.28889E+00  0.21322E+00  0.35453E+00
  0.23999E-01  0.13400E+03    0.24000E-01 -0.11453E-01 -0.12547E-01  0.00000E+00  0.00000E+00  0.00000E+00    0.13400E+03  0.00000E+00  0.00000E+00 -0.28894E+00  0.21534E+00  0.35543E+00
  0.24999E-01  0.13465E+03    0.25000E-01 -0.11930E-01 -0.13070E-01  0.00000E+00  0.00000E+00  0.00000E+00    0.13465E+03  0.00000E+00  0.00000E+00 -0.28895E+00  0.21749E+00  0.35631E+00
  0.25999E-01  0.13530E+03    0.26000E-01 -0.12407E-01 -0.13593E-01  0.00000E+00  0.00000E+00  0.00000E+00    0.13529E+03  0.00000E+00  0.00000E+00 -0.28890E+00  0.21967E+00  0.35719E+00
  0.26999E-01  0.13594E+03    0.27000E-01 -0.12883E-01 -0.14117E-01  0.00000E+00  0.00000E+00  0.00000E+00    0.13593E+03  0.00000E+00  0.00000E+00 -0.28881E+00  0.22187E+00  0.35805E+00
  0.27999E-01  0.13657E+03    0.28000E-01 -0.13360E-01 -0.14640E-01  0.00000E+00  0.00000E+00  0.00000E+00    0.13657E+03  0.00000E+00  0.00000E+00 -0.28868E+00  0.22410E+00  0.35890E+00
  0.28999E-01  0.13721E+03    0.29000E-01 -0.13837E-01 -0.15163E-01  0.00000E+00  0.00000E+00  0.00000E+00    0.13720E+03  0.00000E+00  0.00000E+00 -0.28850E+00  0.22636E+00  0.35975E+00
  0.29999E-01  0.13783E+03    0.30000E-01 -0.14313E-01 -0.15687E-01  0.00000E+00  0.00000E+00  0.00000E+00    0.13783E+03  0.00000E+00  0.00000E+00 -0.28828E+00  0.22864E+00  0.36058E+00
  0.30999E-01  0.13846E+03    0.31000E-01 -0.14790E-01 -0.16210E-01  0.00000E+00  0.00000E+00  0.00000E+00    0.13846E+03  0.00000E+00  0.00000E+00 -0.28801E+00  0.23094E+00  0.36141E+00
  0.31999E-01  0.13908E+03    0.32000E-01 -0.15266E-01 -0.16734E-01  0.00000E+00  0.00000E+00  0.00000E+00    0.13908E+03  0.00000E+00  0.00000E+00 -0.28770E+00  0.23328E+00  0.36223E+00
  0.32999E-01  0.13970E+03    0.33000E-01 -0.15743E-01 -0.17257E-01  0.00000E+00  0.00000E+00  0.00000E+00    0.13970E+03  0.00000E+00  0.00000E+00 -0.28734E+00  0.23564E+00  0.36304E+00
  0.33999E-01  0.14031E+03    0.34000E-01 -0.16219E-01 -0.17781E-01  0.00000E+00  0.00000E+00  0.00000E+00    0.14031E+03  0.00000E+00  0.00000E+00 -0.28694E+00  0.23802E+00  0.36384E+00
  0.34999E-01  0.14087E+03    0.35000E-01 -0.16696E-01 -0.18304E-01  0.00000E+00  0.00000E+00  0.00000E+00    0.14087E+03  0.00000E+00  0.00000E+00 -0.29030E+00  0.23860E+00  0.36461E+00
  0.35999E-01  0.14152E+03    0.36000E-01 -0.17172E-01 -0.18828E-01  0.00000E+00  0.00000E+00  0.00000E+00    0.14152E+03  0.00000E+00  0.00000E+00 -0.28626E+00  0.24269E+00  0.36538E+00
  0.36999E-01  0.14209E+03    0.37000E-01 -0.17649E-01 -0.19351E-01  0.00000E+00  0.00000E+00  0.00000E+00    0.14208E+03  0.00000E+00  0.00000E+00 -0.28931E+00  0.24343E+00  0.36619E+00
  0.37999E-01  0.14269E+03    0.38000E-01 -0.18125E-01 -0.19875E-01  0.00000E+00  0.00000E+00  0.00000E+00    0.14268E+03  0.00000E+00  0.00000E+00 -0.28886E+00  0.24578E+00  0.36697E+00
  0.38999E-01  0.14328E+03    0.39000E-01 -0.18602E-01 -0.20398E-01  0.00000E+00  0.00000E+00  0.00000E+00    0.14328E+03  0.00000E+00  0.00000E+00 -0.28826E+00  0.24825E+00  0.36774E+00
  0.39999E-01  0.14388E+03    0.40000E-01 -0.19078E-01 -0.20922E-01  0.00000E+00  0.00000E+00  0.00000E+00    0.14387E+03  0.00000E+00  0.00000E+00 -0.28762E+00  0.25075E+00  0.36851E+00
  0.40999E-01  0.14447E+03    0.41000E-01 -0.19554E-01 -0.21446E-01  0.00000E+00  0.00000E+00  0.00000E+00    0.14446E+03  0.00000E+00  0.00000E+00 -0.28695E+00  0.25327E+00  0.36927E+00
  0.41999E-01  0.14505E+03    0.42000E-01 -0.20031E-01 -0.21969E-01  0.00000E+00  0.00000E+00  0.00000E+00    0.14505E+03  0.00000E+00  0.00000E+00 -0.28623E+00  0.25582E+00  0.37003E+00
  0.42999E-01  0.14564E+03    0.43000E-01 -0.20507E-01 -0.22493E-01  0.00000E+00  0.00000E+00  0.00000E+00    0.14563E+03  0.00000E+00  0.00000E+00 -0.28547E+00  0.25838E+00  0.37078E+00
  0.43999E-01  0.14624E+03    0.44000E-01 -0.20983E-01 -0.23017E-01  0.00000E+00  0.00000E+00  0.00000E+00    0.14624E+03  0.00000E+00  0.00000E+00 -0.28101E+00  0.26282E+00  0.37142E+00
  0.44999E-01  0.14679E+03    0.45000E-01 -0.21459E-01 -0.23541E-01  0.00000E+00  0.00000E+00  0.00000E+00    0.14679E+03  0.00000E+00  0.00000E+00 -0.28376E+00  0.26368E+00  0.37228E+00
  0.45999E-01  0.14739E+03    0.46000E-01 -0.21936E-01 -0.24064E-01  0.00000E+00  0.00000E+00  0.00000E+00    0.14739E+03  0.00000E+00  0.00000E+00 -0.27932E+00  0.26811E+00  0.37290E+00
  0.46999E-01  0.14794E+03    0.47000E-01 -0.22412E-01 -0.24588E-01  0.00000E+00  0.00000E+00  0.00000E+00    0.14793E+03  0.00000E+00  0.00000E+00 -0.28198E+00  0.26896E+00  0.37376E+00
  0.47999E-01  0.14853E+03    0.48000E-01 -0.22888E-01 -0.25112E-01  0.00000E+00  0.00000E+00  0.00000E+00    0.14853E+03  0.00000E+00  0.00000E+00 -0.27746E+00  0.27349E+00  0.37435E+00
  0.48999E-01  0.14907E+03    0.49000E-01 -0.23364E-01 -0.25636E-01  0.00000E+00  0.00000E+00  0.00000E+00    0.14906E+03  0.00000E+00  0.00000E+00 -0.28005E+00  0.27433E+00  0.37522E+00
  0.49999E-01  0.14961E+03    0.50000E-01 -0.23840E-01 -0.26160E-01  0.00000E+00  0.00000E+00  0.00000E+00    0.14961E+03  0.00000E+00  0.00000E+00 -0.27953E+00  0.27679E+00  0.37591E+00
  0.50999E-01  0.15019E+03    0.51000E-01 -0.24316E-01 -0.26684E-01  0.00000E+00  0.00000E+00  0.00000E+00    0.15018E+03  0.00000E+00  0.00000E+00 -0.27808E+00  0.27969E+00  0.37667E+00
  0.51999E-01  0.15072E+03    0.52000E-01 -0.24792E-01 -0.27208E-01  0.00000E+00  0.00000E+00  0.00000E+00    0.15072E+03  0.00000E+00  0.00000E+00 -0.27741E+00  0.28228E+00  0.37736E+00
  0.52999E-01  0.15129E+03    0.53000E-01 -0.25268E-01 -0.27732E-01  0.00000E+00  0.00000E+00  0.00000E+00    0.15129E+03  0.00000E+00  0.00000E+00 -0.27588E+00  0.28523E+00  0.37810E+00
  0.53999E-01  0.15182E+03    0.54000E-01 -0.25744E-01 -0.28256E-01  0.00000E+00  0.00000E+00  0.00000E+00    0.15182E+03  0.00000E+00  0.00000E+00 -0.27513E+00  0.28785E+00  0.37879E+00
  0.54999E-01  0.15238E+03    0.55000E-01 -0.26220E-01 -0.28780E-01  0.00000E+00  0.00000E+00  0.00000E+00    0.15238E+03  0.00000E+00  0.00000E+00 -0.27354E+00  0.29085E+00  0.37953E+00
  0.55999E-01  0.15291E+03    0.56000E-01 -0.26696E-01 -0.29304E-01  0.00000E+00  0.00000E+00  0.00000E+00    0.15291E+03  0.00000E+00  0.00000E+00 -0.27272E+00  0.29350E+00  0.38022E+00
  0.56999E-01  0.15347E+03    0.57000E-01 -0.27172E-01 -0.29828E-01  0.00000E+00  0.00000E+00  0.00000E+00    0.15346E+03  0.00000E+00  0.00000E+00 -0.27105E+00  0.29655E+00  0.38095E+00
  0.57999E-01  0.15399E+03    0.58000E-01 -0.27648E-01 -0.30352E-01  0.00000E+00  0.00000E+00  0.00000E+00    0.15398E+03  0.00000E+00  0.00000E+00 -0.27018E+00  0.29924E+00  0.38165E+00
  0.58999E-01  0.15452E+03    0.59000E-01 -0.28124E-01 -0.30876E-01  0.00000E+00  0.00000E+00  0.00000E+00    0.15451E+03  0.00000E+00  0.00000E+00 -0.26894E+00  0.30211E+00  0.38235E+00
  0.59999E-01  0.15505E+03    0.60000E-01 -0.28600E-01 -0.31400E-01  0.00000E+00  0.00000E+00  0.00000E+00    0.15504E+03  0.00000E+00  0.00000E+00 -0.26760E+00  0.30502E+00  0.38306E+00
  0.60999E-01  0.15557E+03    0.61000E-01 -0.29075E-01 -0.31925E-01  0.00000E+00  0.00000E+00  0.00000E+00    0.15557E+03  0.00000E+00  0.00000E+00 -0.26622E+00  0.30795E+00  0.38377E+00
  0.61999E-01  0.15610E+03    0.62000E-01 -0.29551E-01 -0.32449E-01  0.00000E+00  0.00000E+00  0.00000E+00    0.15609E+03  0.00000E+00  0.00000E+00 -0.26480E+00  0.31090E+00  0.38448E+00
  0.62999E-01  0.15662E+03    0.63000E-01 -0.30027E-01 -0.32973E-01  0.00000E+00  0.00000E+00  0.00000E+00    0.15662E+03  0.00000E+00  0.00000E+00 -0.26336E+00  0.31388E+00  0.38518E+00
  0.63999E-01  0.15714E+03    0.64000E-01 -0.30503E-01 -0.33497E-01  0.00000E+00  0.00000E+00  0.00000E+00    0.15713E+03  0.00000E+00  0.00000E+00 -0.26188E+00  0.31687E+00  0.38590E+00
  0.64999E-01  0.15765E+03    0.65000E-01 -0.30978E-01 -0.34022E-01  0.00000E+00  0.00000E+00  0.00000E+00    0.15765E+03  0.00000E+00  0.00000E+00 -0.26038E+00  0.31988E+00  0.38661E+00
  0.65999E-01  0.15817E+03    0.66000E-01 -0.31454E-01 -0.34546E-01  0.00000E+00  0.00000E+00  0.00000E+00    0.15816E+03  0.00000E+00  0.00000E+00 -0.25884E+00  0.32292E+00  0.38733E+00
  0.66999E-01  0.15868E+03    0.67000E-01 -0.31930E-01 -0.35070E-01  0.00000E+00  0.00000E+00  0.00000E+00    0.15867E+03  0.00000E+00  0.00000E+00 -0.25727E+00  0.32596E+00  0.38804E+00
  0.67999E-01  0.15918E+03    0.68000E-01 -0.32405E-01 -0.35595E-01  0.00000E+00  0.00000E+00  0.00000E+00    0.15918E+03  0.00000E+00  0.00000E+00 -0.25567E+00  0.32903E+00  0.38876E+00
  0.68999E-01  0.15969E+03    0.69000E-01 -0.32881E-01 -0.36119E-01  0.00000E+00  0.00000E+00  0.00000E+00    0.15969E+03  0.00000E+00  0.00000E+00 -0.25405E+00  0.33212E+00  0.38948E+00
  0.69999E-01  0.16019E+03    0.70000E-01 -0.33356E-01 -0.36644E-01  0.00000E+00  0.00000E+00  0.00000E+00    0.16019E+03  0.00000E+00  0.00000E+00 -0.25240E+00  0.33522E+00  0.39021E+00
  0.70999E-01  0.16069E+03    0.71000E-01 -0.33832E-01 -0.37168E-01  0.00000E+00  0.00000E+00  0.00000E+00    0.16069E+03  0.00000E+00  0.00000E+00 -0.25072E+00  0.33835E+00  0.39093E+00
  0.71999E-01  0.16119E+03    0.72000E-01 -0.34308E-01 -0.37692E-01  0.00000E+00  0.00000E+00  0.00000E+00    0.16118E+03  0.00000E+00  0.00000E+00 -0.24901E+00  0.34149E+00  0.39166E+00
  0.72998E-01  0.16168E+03    0.73000E-01 -0.34783E-01 -0.38217E-01  0.00000E+00  0.00000E+00  0.00000E+00    0.16168E+03  0.00000E+00  0.00000E+00 -0.24728E+00  0.34465E+00  0.39240E+00
  0.73998E-01  0.16217E+03    0.74000E-01 -0.35258E-01 -0.38742E-01  0.00000E+00  0.00000E+00  0.00000E+00    0.16217E+03  0.00000E+00  0.00000E+00 -0.24552E+00  0.34784E+00  0.39314E+00
  0.74998E-01  0.16266E+03    0.75000E-01 -0.35734E-01 -0.39266E-01  0.00000E+00  0.00000E+00  0.00000E+00    0.16266E+03  0.00000E+00  0.00000E+00 -0.24373E+00  0.35104E+00  0.39389E+00
  0.75998E-01  0.16315E+03    0.76000E-01 -0.36209E-01 -0.39791E-01  0.00000E+00  0.00000E+00  0.00000E+00    0.16315E+03  0.00000E+00  0.00000E+00 -0.23331E+00  0.35810E+00  0.39470E+00
  0.76998E-01  0.16360E+03    0.77000E-01 -0.36685E-01 -0.40315E-01  0.00000E+00  0.00000E+00  0.00000E+00    0.16360E+03  0.00000E+00  0.00000E+00 -0.23372E+00  0.36091E+00  0.39553E+00
  0.77998E-01  0.16408E+03    0.78000E-01 -0.37160E-01 -0.40840E-01  0.00000E+00  0.00000E+00  0.00000E+00    0.16407E+03  0.00000E+00  0.00000E+00 -0.23149E+00  0.36429E+00  0.39633E+00
  0.78998E-01  0.16455E+03    0.79000E-01 -0.37635E-01 -0.41365E-01  0.00000E+00  0.00000E+00  0.00000E+00    0.16455E+03  0.00000E+00  0.00000E+00 -0.22959E+00  0.36760E+00  0.39711E+00
  0.79998E-01  0.16503E+03    0.80000E-01 -0.38111E-01 -0.41889E-01  0.00000E+00  0.00000E+00  0.00000E+00    0.16503E+03  0.00000E+00  0.00000E+00 -0.22767E+00  0.37093E+00  0.39790E+00
  0.80998E-01  0.16557E+03    0.81000E-01 -0.38586E-01 -0.42414E-01  0.00000E+00  0.00000E+00  0.00000E+00    0.16556E+03  0.00000E+00  0.00000E+00 -0.22378E+00  0.37505E+00  0.39860E+00
  0.81998E-01  0.16605E+03    0.82000E-01 -0.39061E-01 -0.42939E-01  0.00000E+00  0.00000E+00  0.00000E+00    0.16605E+03  0.00000E+00  0.00000E+00 -0.22232E+00  0.37831E+00  0.39936E+00
  0.82998E-01  0.16652E+03    0.83000E-01 -0.39536E-01 -0.43464E-01  0.00000E+00  0.00000E+00  0.00000E+00    0.16651E+03  0.00000E+00  0.00000E+00 -0.22033E+00  0.38171E+00  0.40016E+00
  0.83998E-01  0.16698E+03    0.84000E-01 -0.40011E-01 -0.43989E-01  0.00000E+00  0.00000E+00  0.00000E+00    0.16698E+03  0.00000E+00  0.00000E+00 -0.21830E+00  0.38513E+00  0.40098E+00
  0.84998E-01  0.16745E+03    0.85000E-01 -0.40487E-01 -0.44513E-01  0.00000E+00  0.00000E+00  0.00000E+00    0.16744E+03  0.00000E+00  0.00000E+00 -0.21625E+00  0.38857E+00  0.40180E+00
  0.85998E-01  0.16791E+03    0.86000E-01 -0.40962E-01 -0.45038E-01  0.00000E+00  0.00000E+00  0.00000E+00    0.16791E+03  0.00000E+00  0.00000E+00 -0.21418E+00  0.39203E+00  0.40264E+00
  0.86998E-01  0.16837E+03    0.87000E-01 -0.41437E-01 -0.45563E-01  0.00000E+00  0.00000E+00  0.00000E+00    0.16836E+03  0.00000E+00  0.00000E+00 -0.21209E+00  0.39552E+00  0.40349E+00
  0.87998E-01  0.16882E+03    0.88000E-01 -0.41912E-01 -0.46088E-01  0.00000E+00  0.00000E+00  0.00000E+00    0.16882E+03  0.00000E+00  0.00000E+00 -0.20998E+00  0.39902E+00  0.40435E+00
  0.88998E-01  0.16928E+03    0.89000E-01 -0.42387E-01 -0.46613E-01  0.00000E+00  0.00000E+00  0.00000E+00    0.16927E+03  0.00000E+00  0.00000E+00 -0.20784E+00  0.40254E+00  0.40522E+00
  0.89998E-01  0.16973E+03    0.90000E-01 -0.42862E-01 -0.47138E-01  0.00000E+00  0.00000E+00  0.00000E+00    0.16973E+03  0.00000E+00  0.00000E+00 -0.20568E+00  0.40609E+00  0.40610E+00
  0.90998E-01  0.17018E+03    0.91000E-01 -0.43337E-01 -0.47663E-01  0.00000E+00  0.00000E+00  0.00000E+00    0.17018E+03  0.00000E+00  0.00000E+00 -0.20350E+00  0.40966E+00  0.40700E+00
  0.91998E-01  0.17063E+03    0.92000E-01 -0.43812E-01 -0.48188E-01  0.00000E+00  0.00000E+00  0.00000E+00    0.17062E+03  0.00000E+00  0.00000E+00 -0.20129E+00  0.41325E+00  0.40790E+00
  0.92998E-01  0.17107E+03    0.93000E-01 -0.44287E-01 -0.48713E-01  0.00000E+00  0.00000E+00  0.00000E+00    0.17107E+03  0.00000E+00  0.00000E+00 -0.19907E+00  0.41687E+00  0.40883E+00
  0.93998E-01  0.17151E+03    0.94000E-01 -0.44762E-01 -0.49238E-01  0.00000E+00  0.00000E+00  0.00000E+00    0.17151E+03  0.00000E+00  0.00000E+00 -0.19682E+00  0.42051E+00  0.40977E+00
  0.94998E-01  0.17196E+03    0.95000E-01 -0.45237E-01 -0.49763E-01  0.00000E+00  0.00000E+00  0.00000E+00    0.17195E+03  0.00000E+00  0.00000E+00 -0.19456E+00  0.42417E+00  0.41072E+00
  0.95998E-01  0.17239E+03    0.96000E-01 -0.45712E-01 -0.50288E-01  0.00000E+00  0.00000E+00  0.00000E+00    0.17239E+03  0.00000E+00  0.00000E+00 -0.19227E+00  0.42785E+00  0.41169E+00
  0.96998E-01  0.17283E+03    0.97000E-01 -0.46186E-01 -0.50814E-01  0.00000E+00  0.00000E+00  0.00000E+00    0.17283E+03  0.00000E+00  0.00000E+00 -0.18997E+00  0.43156E+00  0.41267E+00
  0.97998E-01  0.17326E+03    0.98000E-01 -0.46661E-01 -0.51339E-01  0.00000E+00  0.00000E+00  0.00000E+00    0.17326E+03  0.00000E+00  0.00000E+00 -0.18764E+00  0.43529E+00  0.41368E+00
  0.98998E-01  0.17370E+03    0.99000E-01 -0.47136E-01 -0.51864E-01  0.00000E+00  0.00000E+00  0.00000E+00    0.17369E+03  0.00000E+00  0.00000E+00 -0.18530E+00  0.43904E+00  0.41470E+00
  0.99998E-01  0.17413E+03    0.10000E+00 -0.47611E-01 -0.52389E-01  0.00000E+00  0.00000E+00  0.00000E+00    0.17412E+03  0.00000E+00  0.00000E+00 -0.18294E+00  0.44282E+00  0.41573E+00
