          Evm          Svm            E11          E22          E33          E23          E13          E12         SCAU11       SCAU22       SCAU33       SCAU23       SCAU13       SCAU12      TEMP
  0.00000E+00  0.10914E+03    0.00000E+00  0.00000E+00  0.00000E+00  0.00000E+00  0.00000E+00  0.00000E+00    0.10913E+03  0.00000E+00  0.00000E+00 -0.25312E+00  0.15693E+00  0.30156E+00
  0.99998E-03  0.10985E+03    0.10000E-02 -0.47967E-03 -0.52033E-03  0.00000E+00  0.00000E+00  0.00000E+00    0.10984E+03  0.00000E+00  0.00000E+00 -0.25872E+00  0.16071E+00  0.30556E+00
  0.20000E-02  0.11051E+03    0.20000E-02 -0.95784E-03 -0.10422E-02  0.00000E+00  0.00000E+00  0.00000E+00    0.11051E+03  0.00000E+00  0.00000E+00 -0.25914E+00  0.16200E+00  0.30822E+00
  0.29999E-02  0.11125E+03    0.30000E-02 -0.14356E-02 -0.15644E-02  0.00000E+00  0.00000E+00  0.00000E+00    0.11125E+03  0.00000E+00  0.00000E+00 -0.26050E+00  0.16345E+00  0.31005E+00
  0.39999E-02  0.11198E+03    0.40000E-02 -0.19132E-02 -0.20868E-02  0.00000E+00  0.00000E+00  0.00000E+00    0.11197E+03  0.00000E+00  0.00000E+00 -0.25927E+00  0.16597E+00  0.31153E+00
  0.49999E-02  0.11272E+03    0.50000E-02 -0.23906E-02 -0.26094E-02  0.00000E+00  0.00000E+00  0.00000E+00    0.11271E+03  0.00000E+00  0.00000E+00 -0.26042E+00  0.16763E+00  0.31299E+00
  0.59999E-02  0.11344E+03    0.60000E-02 -0.28679E-02 -0.31321E-02  0.00000E+00  0.00000E+00  0.00000E+00    0.11344E+03  0.00000E+00  0.00000E+00 -0.26149E+00  0.16919E+00  0.31429E+00
  0.69998E-02  0.11417E+03    0.70000E-02 -0.33451E-02 -0.36549E-02  0.00000E+00  0.00000E+00  0.00000E+00    0.11416E+03  0.00000E+00  0.00000E+00 -0.26249E+00  0.17077E+00  0.31554E+00
  0.79998E-02  0.11488E+03    0.80000E-02 -0.38223E-02 -0.41777E-02  0.00000E+00  0.00000E+00  0.00000E+00    0.11488E+03  0.00000E+00  0.00000E+00 -0.26344E+00  0.17239E+00  0.31675E+00
  0.89998E-02  0.11560E+03    0.90000E-02 -0.42994E-02 -0.47006E-02  0.00000E+00  0.00000E+00  0.00000E+00    0.11560E+03  0.00000E+00  0.00000E+00 -0.26434E+00  0.17403E+00  0.31793E+00
  0.99998E-02  0.11631E+03    0.10000E-01 -0.47765E-02 -0.52235E-02  0.00000E+00  0.00000E+00  0.00000E+00    0.11630E+03  0.00000E+00  0.00000E+00 -0.26518E+00  0.17570E+00  0.31908E+00
  0.11000E-01  0.11701E+03    0.11000E-01 -0.52535E-02 -0.57465E-02  0.00000E+00  0.00000E+00  0.00000E+00    0.11701E+03  0.00000E+00  0.00000E+00 -0.26597E+00  0.17740E+00  0.32021E+00
  0.12000E-01  0.11771E+03    0.12000E-01 -0.57306E-02 -0.62694E-02  0.00000E+00  0.00000E+00  0.00000E+00    0.11771E+03  0.00000E+00  0.00000E+00 -0.26671E+00  0.17913E+00  0.32132E+00
  0.13000E-01  0.11841E+03    0.13000E-01 -0.62076E-02 -0.67924E-02  0.00000E+00  0.00000E+00  0.00000E+00    0.11841E+03  0.00000E+00  0.00000E+00 -0.26739E+00  0.18089E+00  0.32241E+00
  0.14000E-01  0.11910E+03    0.14000E-01 -0.66846E-02 -0.73154E-02  0.00000E+00  0.00000E+00  0.00000E+00    0.11910E+03  0.00000E+00  0.00000E+00 -0.26802E+00  0.18267E+00  0.32348E+00
  0.15000E-01  0.11979E+03    0.15000E-01 -0.71615E-02 -0.78385E-02  0.00000E+00  0.00000E+00  0.00000E+00    0.11978E+03  0.00000E+00  0.00000E+00 -0.26861E+00  0.18449E+00  0.32454E+00
  0.16000E-01  0.12047E+03    0.16000E-01 -0.76384E-02 -0.83616E-02  0.00000E+00  0.00000E+00  0.00000E+00    0.12047E+03  0.00000E+00  0.00000E+00 -0.26914E+00  0.18633E+00  0.32559E+00
  0.17000E-01  0.12115E+03    0.17000E-01 -0.81154E-02 -0.88846E-02  0.00000E+00  0.00000E+00  0.00000E+00    0.12115E+03  0.00000E+00  0.00000E+00 -0.26962E+00  0.18819E+00  0.32661E+00
  0.18000E-01  0.12183E+03    0.18000E-01 -0.85922E-02 -0.94078E-02  0.00000E+00  0.00000E+00  0.00000E+00    0.12182E+03  0.00000E+00  0.00000E+00 -0.27005E+00  0.19009E+00  0.32763E+00
  0.19000E-01  0.12250E+03    0.19000E-01 -0.90691E-02 -0.99309E-02  0.00000E+00  0.00000E+00  0.00000E+00    0.12249E+03  0.00000E+00  0.00000E+00 -0.27043E+00  0.19201E+00  0.32863E+00
  0.20000E-01  0.12316E+03    0.20000E-01 -0.95460E-02 -0.10454E-01  0.00000E+00  0.00000E+00  0.00000E+00    0.12316E+03  0.00000E+00  0.00000E+00 -0.27076E+00  0.19395E+00  0.32961E+00
  0.21000E-01  0.12383E+03    0.21000E-01 -0.10023E-01 -0.10977E-01  0.00000E+00  0.00000E+00  0.00000E+00    0.12382E+03  0.00000E+00  0.00000E+00 -0.27105E+00  0.19593E+00  0.33058E+00
  0.22000E-01  0.12449E+03    0.22000E-01 -0.10500E-01 -0.11500E-01  0.00000E+00  0.00000E+00  0.00000E+00    0.12448E+03  0.00000E+00  0.00000E+00 -0.27128E+00  0.19793E+00  0.33155E+00
  0.22999E-01  0.12514E+03    0.23000E-01 -0.10976E-01 -0.12024E-01  0.00000E+00  0.00000E+00  0.00000E+00    0.12514E+03  0.00000E+00  0.00000E+00 -0.27147E+00  0.19996E+00  0.33250E+00
  0.23999E-01  0.12579E+03    0.24000E-01 -0.11453E-01 -0.12547E-01  0.00000E+00  0.00000E+00  0.00000E+00    0.12579E+03  0.00000E+00  0.00000E+00 -0.27161E+00  0.20201E+00  0.33344E+00
  0.24999E-01  0.12644E+03    0.25000E-01 -0.11930E-01 -0.13070E-01  0.00000E+00  0.00000E+00  0.00000E+00    0.12644E+03  0.00000E+00  0.00000E+00 -0.27171E+00  0.20409E+00  0.33437E+00
  0.25999E-01  0.12708E+03    0.26000E-01 -0.12407E-01 -0.13593E-01  0.00000E+00  0.00000E+00  0.00000E+00    0.12708E+03  0.00000E+00  0.00000E+00 -0.27176E+00  0.20620E+00  0.33528E+00
  0.26999E-01  0.12772E+03    0.27000E-01 -0.12883E-01 -0.14117E-01  0.00000E+00  0.00000E+00  0.00000E+00    0.12772E+03  0.00000E+00  0.00000E+00 -0.27176E+00  0.20833E+00  0.33619E+00
  0.27999E-01  0.12836E+03    0.28000E-01 -0.13360E-01 -0.14640E-01  0.00000E+00  0.00000E+00  0.00000E+00    0.12836E+03  0.00000E+00  0.00000E+00 -0.27172E+00  0.21048E+00  0.33708E+00
  0.28999E-01  0.12899E+03    0.29000E-01 -0.13837E-01 -0.15163E-01  0.00000E+00  0.00000E+00  0.00000E+00    0.12899E+03  0.00000E+00  0.00000E+00 -0.27163E+00  0.21266E+00  0.33798E+00
  0.29999E-01  0.12962E+03    0.30000E-01 -0.14313E-01 -0.15687E-01  0.00000E+00  0.00000E+00  0.00000E+00    0.12962E+03  0.00000E+00  0.00000E+00 -0.27149E+00  0.21487E+00  0.33885E+00
  0.30999E-01  0.13025E+03    0.31000E-01 -0.14790E-01 -0.16210E-01  0.00000E+00  0.00000E+00  0.00000E+00    0.13024E+03  0.00000E+00  0.00000E+00 -0.27132E+00  0.21710E+00  0.33972E+00
  0.31999E-01  0.13087E+03    0.32000E-01 -0.15266E-01 -0.16734E-01  0.00000E+00  0.00000E+00  0.00000E+00    0.13086E+03  0.00000E+00  0.00000E+00 -0.27110E+00  0.21936E+00  0.34058E+00
  0.32999E-01  0.13148E+03    0.33000E-01 -0.15743E-01 -0.17257E-01  0.00000E+00  0.00000E+00  0.00000E+00    0.13148E+03  0.00000E+00  0.00000E+00 -0.27084E+00  0.22163E+00  0.34144E+00
  0.33999E-01  0.13210E+03    0.34000E-01 -0.16219E-01 -0.17781E-01  0.00000E+00  0.00000E+00  0.00000E+00    0.13209E+03  0.00000E+00  0.00000E+00 -0.27054E+00  0.22394E+00  0.34228E+00
  0.34999E-01  0.13271E+03    0.35000E-01 -0.16696E-01 -0.18304E-01  0.00000E+00  0.00000E+00  0.00000E+00    0.13271E+03  0.00000E+00  0.00000E+00 -0.27019E+00  0.22626E+00  0.34312E+00
  0.35999E-01  0.13331E+03    0.36000E-01 -0.17172E-01 -0.18828E-01  0.00000E+00  0.00000E+00  0.00000E+00    0.13331E+03  0.00000E+00  0.00000E+00 -0.26981E+00  0.22861E+00  0.34394E+00
  0.36999E-01  0.13392E+03    0.37000E-01 -0.17649E-01 -0.19351E-01  0.00000E+00  0.00000E+00  0.00000E+00    0.13392E+03  0.00000E+00  0.00000E+00 -0.26938E+00  0.23098E+00  0.34476E+00
  0.37999E-01  0.13452E+03    0.38000E-01 -0.18125E-01 -0.19875E-01  0.00000E+00  0.00000E+00  0.00000E+00    0.13451E+03  0.00000E+00  0.00000E+00 -0.26892E+00  0.23338E+00  0.34558E+00
  0.38999E-01  0.13511E+03    0.39000E-01 -0.18601E-01 -0.20399E-01  0.00000E+00  0.00000E+00  0.00000E+00    0.13511E+03  0.00000E+00  0.00000E+00 -0.26841E+00  0.23580E+00  0.34639E+00
  0.39999E-01  0.13571E+03    0.40000E-01 -0.19078E-01 -0.20922E-01  0.00000E+00  0.00000E+00  0.00000E+00    0.13570E+03  0.00000E+00  0.00000E+00 -0.26786E+00  0.23824E+00  0.34719E+00
  0.40999E-01  0.13625E+03    0.41000E-01 -0.19554E-01 -0.21446E-01  0.00000E+00  0.00000E+00  0.00000E+00    0.13625E+03  0.00000E+00  0.00000E+00 -0.27109E+00  0.23878E+00  0.34798E+00
  0.41999E-01  0.13688E+03    0.42000E-01 -0.20030E-01 -0.21970E-01  0.00000E+00  0.00000E+00  0.00000E+00    0.13687E+03  0.00000E+00  0.00000E+00 -0.26691E+00  0.24301E+00  0.34873E+00
  0.42999E-01  0.13742E+03    0.43000E-01 -0.20507E-01 -0.22493E-01  0.00000E+00  0.00000E+00  0.00000E+00    0.13742E+03  0.00000E+00  0.00000E+00 -0.26983E+00  0.24371E+00  0.34956E+00
  0.43999E-01  0.13800E+03    0.44000E-01 -0.20983E-01 -0.23017E-01  0.00000E+00  0.00000E+00  0.00000E+00    0.13800E+03  0.00000E+00  0.00000E+00 -0.26923E+00  0.24611E+00  0.35035E+00
  0.44999E-01  0.13858E+03    0.45000E-01 -0.21459E-01 -0.23541E-01  0.00000E+00  0.00000E+00  0.00000E+00    0.13857E+03  0.00000E+00  0.00000E+00 -0.26851E+00  0.24863E+00  0.35113E+00
  0.45999E-01  0.13915E+03    0.46000E-01 -0.21935E-01 -0.24065E-01  0.00000E+00  0.00000E+00  0.00000E+00    0.13915E+03  0.00000E+00  0.00000E+00 -0.26775E+00  0.25117E+00  0.35190E+00
  0.46999E-01  0.13972E+03    0.47000E-01 -0.22412E-01 -0.24588E-01  0.00000E+00  0.00000E+00  0.00000E+00    0.13972E+03  0.00000E+00  0.00000E+00 -0.26694E+00  0.25374E+00  0.35268E+00
  0.47999E-01  0.14029E+03    0.48000E-01 -0.22888E-01 -0.25112E-01  0.00000E+00  0.00000E+00  0.00000E+00    0.14028E+03  0.00000E+00  0.00000E+00 -0.26611E+00  0.25632E+00  0.35344E+00
  0.48999E-01  0.14085E+03    0.49000E-01 -0.23364E-01 -0.25636E-01  0.00000E+00  0.00000E+00  0.00000E+00    0.14085E+03  0.00000E+00  0.00000E+00 -0.26523E+00  0.25893E+00  0.35420E+00
  0.49999E-01  0.14141E+03    0.50000E-01 -0.23840E-01 -0.26160E-01  0.00000E+00  0.00000E+00  0.00000E+00    0.14141E+03  0.00000E+00  0.00000E+00 -0.26432E+00  0.26155E+00  0.35497E+00
  0.50999E-01  0.14199E+03    0.51000E-01 -0.24316E-01 -0.26684E-01  0.00000E+00  0.00000E+00  0.00000E+00    0.14199E+03  0.00000E+00  0.00000E+00 -0.25974E+00  0.26616E+00  0.35558E+00
  0.51999E-01  0.14252E+03    0.52000E-01 -0.24792E-01 -0.27208E-01  0.00000E+00  0.00000E+00  0.00000E+00    0.14251E+03  0.00000E+00  0.00000E+00 -0.26233E+00  0.26696E+00  0.35648E+00
  0.52999E-01  0.14309E+03    0.53000E-01 -0.25268E-01 -0.27732E-01  0.00000E+00  0.00000E+00  0.00000E+00    0.14309E+03  0.00000E+00  0.00000E+00 -0.25776E+00  0.27155E+00  0.35707E+00
  0.53999E-01  0.14362E+03    0.54000E-01 -0.25744E-01 -0.28256E-01  0.00000E+00  0.00000E+00  0.00000E+00    0.14361E+03  0.00000E+00  0.00000E+00 -0.26027E+00  0.27235E+00  0.35799E+00
  0.54999E-01  0.14419E+03    0.55000E-01 -0.26220E-01 -0.28780E-01  0.00000E+00  0.00000E+00  0.00000E+00    0.14418E+03  0.00000E+00  0.00000E+00 -0.25564E+00  0.27703E+00  0.35856E+00
  0.55999E-01  0.14470E+03    0.56000E-01 -0.26696E-01 -0.29304E-01  0.00000E+00  0.00000E+00  0.00000E+00    0.14470E+03  0.00000E+00  0.00000E+00 -0.25808E+00  0.27783E+00  0.35947E+00
  0.56999E-01  0.14523E+03    0.57000E-01 -0.27172E-01 -0.29828E-01  0.00000E+00  0.00000E+00  0.00000E+00    0.14523E+03  0.00000E+00  0.00000E+00 -0.25744E+00  0.28029E+00  0.36019E+00
  0.57999E-01  0.14578E+03    0.58000E-01 -0.27648E-01 -0.30352E-01  0.00000E+00  0.00000E+00  0.00000E+00    0.14578E+03  0.00000E+00  0.00000E+00 -0.25585E+00  0.28326E+00  0.36096E+00
  0.58999E-01  0.14630E+03    0.59000E-01 -0.28124E-01 -0.30876E-01  0.00000E+00  0.00000E+00  0.00000E+00    0.14629E+03  0.00000E+00  0.00000E+00 -0.25505E+00  0.28587E+00  0.36167E+00
  0.59999E-01  0.14684E+03    0.60000E-01 -0.28600E-01 -0.31400E-01  0.00000E+00  0.00000E+00  0.00000E+00    0.14684E+03  0.00000E+00  0.00000E+00 -0.25340E+00  0.28888E+00  0.36243E+00
  0.60999E-01  0.14735E+03    0.61000E-01 -0.29075E-01 -0.31925E-01  0.00000E+00  0.00000E+00  0.00000E+00    0.14735E+03  0.00000E+00  0.00000E+00 -0.25255E+00  0.29152E+00  0.36316E+00
  0.61999E-01  0.14789E+03    0.62000E-01 -0.29551E-01 -0.32449E-01  0.00000E+00  0.00000E+00  0.00000E+00    0.14789E+03  0.00000E+00  0.00000E+00 -0.25083E+00  0.29457E+00  0.36391E+00
  0.62999E-01  0.14840E+03    0.63000E-01 -0.30027E-01 -0.32973E-01  0.00000E+00  0.00000E+00  0.00000E+00    0.14839E+03  0.00000E+00  0.00000E+00 -0.24992E+00  0.29725E+00  0.36464E+00
  0.63999E-01  0.14893E+03    0.64000E-01 -0.30503E-01 -0.33497E-01  0.00000E+00  0.00000E+00  0.00000E+00    0.14893E+03  0.00000E+00  0.00000E+00 -0.24814E+00  0.30034E+00  0.36538E+00
  0.64999E-01  0.14943E+03    0.65000E-01 -0.30978E-01 -0.34022E-01  0.00000E+00  0.00000E+00  0.00000E+00    0.14943E+03  0.00000E+00  0.00000E+00 -0.24717E+00  0.30305E+00  0.36611E+00
  0.65999E-01  0.14994E+03    0.66000E-01 -0.31454E-01 -0.34546E-01  0.00000E+00  0.00000E+00  0.00000E+00    0.14994E+03  0.00000E+00  0.00000E+00 -0.24582E+00  0.30595E+00  0.36685E+00
  0.66999E-01  0.15045E+03    0.67000E-01 -0.31930E-01 -0.35070E-01  0.00000E+00  0.00000E+00  0.00000E+00    0.15045E+03  0.00000E+00  0.00000E+00 -0.24438E+00  0.30889E+00  0.36759E+00
  0.67999E-01  0.15096E+03    0.68000E-01 -0.32405E-01 -0.35595E-01  0.00000E+00  0.00000E+00  0.00000E+00    0.15095E+03  0.00000E+00  0.00000E+00 -0.24291E+00  0.31186E+00  0.36833E+00
  0.68999E-01  0.15146E+03    0.69000E-01 -0.32881E-01 -0.36119E-01  0.00000E+00  0.00000E+00  0.00000E+00    0.15146E+03  0.00000E+00  0.00000E+00 -0.24140E+00  0.31484E+00  0.36908E+00
  0.69999E-01  0.15196E+03    0.70000E-01 -0.33357E-01 -0.36643E-01  0.00000E+00  0.00000E+00  0.00000E+00    0.15196E+03  0.00000E+00  0.00000E+00 -0.23986E+00  0.31785E+00  0.36983E+00
  0.70999E-01  0.15246E+03    0.71000E-01 -0.33832E-01 -0.37168E-01  0.00000E+00  0.00000E+00  0.00000E+00    0.15246E+03  0.00000E+00  0.00000E+00 -0.23830E+00  0.32087E+00  0.37058E+00
  0.71999E-01  0.15296E+03    0.72000E-01 -0.34308E-01 -0.37692E-01  0.00000E+00  0.00000E+00  0.00000E+00    0.15295E+03  0.00000E+00  0.00000E+00 -0.23671E+00  0.32390E+00  0.37133E+00
  0.72998E-01  0.15345E+03    0.73000E-01 -0.34783E-01 -0.38217E-01  0.00000E+00  0.00000E+00  0.00000E+00    0.15345E+03  0.00000E+00  0.00000E+00 -0.23509E+00  0.32696E+00  0.37209E+00
  0.73998E-01  0.15394E+03    0.74000E-01 -0.35259E-01 -0.38741E-01  0.00000E+00  0.00000E+00  0.00000E+00    0.15394E+03  0.00000E+00  0.00000E+00 -0.23345E+00  0.33004E+00  0.37285E+00
  0.74998E-01  0.15443E+03    0.75000E-01 -0.35734E-01 -0.39266E-01  0.00000E+00  0.00000E+00  0.00000E+00    0.15443E+03  0.00000E+00  0.00000E+00 -0.23178E+00  0.33313E+00  0.37362E+00
  0.75998E-01  0.15492E+03    0.76000E-01 -0.36209E-01 -0.39791E-01  0.00000E+00  0.00000E+00  0.00000E+00    0.15491E+03  0.00000E+00  0.00000E+00 -0.23008E+00  0.33625E+00  0.37439E+00
  0.76998E-01  0.15540E+03    0.77000E-01 -0.36685E-01 -0.40315E-01  0.00000E+00  0.00000E+00  0.00000E+00    0.15540E+03  0.00000E+00  0.00000E+00 -0.22836E+00  0.33938E+00  0.37517E+00
  0.77998E-01  0.15588E+03    0.78000E-01 -0.37160E-01 -0.40840E-01  0.00000E+00  0.00000E+00  0.00000E+00    0.15588E+03  0.00000E+00  0.00000E+00 -0.22661E+00  0.34254E+00  0.37595E+00
  0.78998E-01  0.15636E+03    0.79000E-01 -0.37636E-01 -0.41364E-01  0.00000E+00  0.00000E+00  0.00000E+00    0.15635E+03  0.00000E+00  0.00000E+00 -0.22483E+00  0.34571E+00  0.37674E+00
  0.79998E-01  0.15683E+03    0.80000E-01 -0.38111E-01 -0.41889E-01  0.00000E+00  0.00000E+00  0.00000E+00    0.15683E+03  0.00000E+00  0.00000E+00 -0.22303E+00  0.34890E+00  0.37753E+00
  0.80998E-01  0.15731E+03    0.81000E-01 -0.38586E-01 -0.42414E-01  0.00000E+00  0.00000E+00  0.00000E+00    0.15730E+03  0.00000E+00  0.00000E+00 -0.22121E+00  0.35211E+00  0.37834E+00
  0.81998E-01  0.15778E+03    0.82000E-01 -0.39061E-01 -0.42939E-01  0.00000E+00  0.00000E+00  0.00000E+00    0.15777E+03  0.00000E+00  0.00000E+00 -0.21080E+00  0.35932E+00  0.37919E+00
  0.82998E-01  0.15822E+03    0.83000E-01 -0.39537E-01 -0.43463E-01  0.00000E+00  0.00000E+00  0.00000E+00    0.15821E+03  0.00000E+00  0.00000E+00 -0.21116E+00  0.36209E+00  0.38013E+00
  0.83998E-01  0.15867E+03    0.84000E-01 -0.40012E-01 -0.43988E-01  0.00000E+00  0.00000E+00  0.00000E+00    0.15867E+03  0.00000E+00  0.00000E+00 -0.20892E+00  0.36548E+00  0.38098E+00
  0.84998E-01  0.15913E+03    0.85000E-01 -0.40487E-01 -0.44513E-01  0.00000E+00  0.00000E+00  0.00000E+00    0.15913E+03  0.00000E+00  0.00000E+00 -0.20699E+00  0.36881E+00  0.38183E+00
  0.85998E-01  0.15960E+03    0.86000E-01 -0.40962E-01 -0.45038E-01  0.00000E+00  0.00000E+00  0.00000E+00    0.15959E+03  0.00000E+00  0.00000E+00 -0.20504E+00  0.37214E+00  0.38268E+00
  0.86998E-01  0.16012E+03    0.87000E-01 -0.41437E-01 -0.45563E-01  0.00000E+00  0.00000E+00  0.00000E+00    0.16011E+03  0.00000E+00  0.00000E+00 -0.20113E+00  0.37631E+00  0.38344E+00
  0.87998E-01  0.16058E+03    0.88000E-01 -0.41912E-01 -0.46088E-01  0.00000E+00  0.00000E+00  0.00000E+00    0.16058E+03  0.00000E+00  0.00000E+00 -0.19964E+00  0.37958E+00  0.38428E+00
  0.88998E-01  0.16104E+03    0.89000E-01 -0.42387E-01 -0.46613E-01  0.00000E+00  0.00000E+00  0.00000E+00    0.16103E+03  0.00000E+00  0.00000E+00 -0.19763E+00  0.38299E+00  0.38515E+00
  0.89998E-01  0.16149E+03    0.90000E-01 -0.42862E-01 -0.47138E-01  0.00000E+00  0.00000E+00  0.00000E+00    0.16148E+03  0.00000E+00  0.00000E+00 -0.19558E+00  0.38642E+00  0.38605E+00
  0.90998E-01  0.16194E+03    0.91000E-01 -0.43337E-01 -0.47663E-01  0.00000E+00  0.00000E+00  0.00000E+00    0.16193E+03  0.00000E+00  0.00000E+00 -0.19352E+00  0.38987E+00  0.38695E+00
  0.91998E-01  0.16238E+03    0.92000E-01 -0.43812E-01 -0.48188E-01  0.00000E+00  0.00000E+00  0.00000E+00    0.16238E+03  0.00000E+00  0.00000E+00 -0.19144E+00  0.39334E+00  0.38787E+00
  0.92998E-01  0.16283E+03    0.93000E-01 -0.44287E-01 -0.48713E-01  0.00000E+00  0.00000E+00  0.00000E+00    0.16282E+03  0.00000E+00  0.00000E+00 -0.18934E+00  0.39684E+00  0.38880E+00
  0.93998E-01  0.16327E+03    0.94000E-01 -0.44762E-01 -0.49238E-01  0.00000E+00  0.00000E+00  0.00000E+00    0.16327E+03  0.00000E+00  0.00000E+00 -0.18722E+00  0.40035E+00  0.38974E+00
  0.94998E-01  0.16371E+03    0.95000E-01 -0.45237E-01 -0.49763E-01  0.00000E+00  0.00000E+00  0.00000E+00    0.16371E+03  0.00000E+00  0.00000E+00 -0.18508E+00  0.40389E+00  0.39070E+00
  0.95998E-01  0.16415E+03    0.96000E-01 -0.45712E-01 -0.50288E-01  0.00000E+00  0.00000E+00  0.00000E+00    0.16414E+03  0.00000E+00  0.00000E+00 -0.18292E+00  0.40745E+00  0.39168E+00
  0.96998E-01  0.16458E+03    0.97000E-01 -0.46187E-01 -0.50813E-01  0.00000E+00  0.00000E+00  0.00000E+00    0.16458E+03  0.00000E+00  0.00000E+00 -0.18074E+00  0.41104E+00  0.39266E+00
  0.97998E-01  0.16502E+03    0.98000E-01 -0.46662E-01 -0.51338E-01  0.00000E+00  0.00000E+00  0.00000E+00    0.16501E+03  0.00000E+00  0.00000E+00 -0.17854E+00  0.41465E+00  0.39367E+00
  0.98998E-01  0.16545E+03    0.99000E-01 -0.47136E-01 -0.51864E-01  0.00000E+00  0.00000E+00  0.00000E+00    0.16544E+03  0.00000E+00  0.00000E+00 -0.17632E+00  0.41828E+00  0.39469E+00
  0.99998E-01  0.16588E+03    0.10000E+00 -0.47611E-01 -0.52389E-01  0.00000E+00  0.00000E+00  0.00000E+00    0.16587E+03  0.00000E+00  0.00000E+00 -0.17408E+00  0.42193E+00  0.39573E+00
