          Evm          Svm            E11          E22          E33          E23          E13          E12         SCAU11       SCAU22       SCAU33       SCAU23       SCAU13       SCAU12      TEMP
  0.00000E+00  0.10815E+03    0.00000E+00  0.00000E+00  0.00000E+00  0.00000E+00  0.00000E+00  0.00000E+00    0.10815E+03  0.00000E+00  0.00000E+00 -0.25083E+00  0.15551E+00  0.29883E+00
  0.99998E-03  0.10886E+03    0.10000E-02 -0.47967E-03 -0.52033E-03  0.00000E+00  0.00000E+00  0.00000E+00    0.10886E+03  0.00000E+00  0.00000E+00 -0.25643E+00  0.15926E+00  0.30281E+00
  0.20000E-02  0.10953E+03    0.20000E-02 -0.95784E-03 -0.10422E-02  0.00000E+00  0.00000E+00  0.00000E+00    0.10952E+03  0.00000E+00  0.00000E+00 -0.25685E+00  0.16056E+00  0.30546E+00
  0.29999E-02  0.11026E+03    0.30000E-02 -0.14356E-02 -0.15644E-02  0.00000E+00  0.00000E+00  0.00000E+00    0.11026E+03  0.00000E+00  0.00000E+00 -0.25823E+00  0.16200E+00  0.30729E+00
  0.39999E-02  0.11100E+03    0.40000E-02 -0.19132E-02 -0.20868E-02  0.00000E+00  0.00000E+00  0.00000E+00    0.11100E+03  0.00000E+00  0.00000E+00 -0.25942E+00  0.16346E+00  0.30881E+00
  0.49999E-02  0.11172E+03    0.50000E-02 -0.23906E-02 -0.26094E-02  0.00000E+00  0.00000E+00  0.00000E+00    0.11172E+03  0.00000E+00  0.00000E+00 -0.25813E+00  0.16600E+00  0.31020E+00
  0.59999E-02  0.11246E+03    0.60000E-02 -0.28678E-02 -0.31322E-02  0.00000E+00  0.00000E+00  0.00000E+00    0.11245E+03  0.00000E+00  0.00000E+00 -0.25922E+00  0.16770E+00  0.31156E+00
  0.69998E-02  0.11318E+03    0.70000E-02 -0.33451E-02 -0.36549E-02  0.00000E+00  0.00000E+00  0.00000E+00    0.11318E+03  0.00000E+00  0.00000E+00 -0.26025E+00  0.16929E+00  0.31281E+00
  0.79998E-02  0.11390E+03    0.80000E-02 -0.38222E-02 -0.41778E-02  0.00000E+00  0.00000E+00  0.00000E+00    0.11389E+03  0.00000E+00  0.00000E+00 -0.26121E+00  0.17090E+00  0.31403E+00
  0.89998E-02  0.11461E+03    0.90000E-02 -0.42994E-02 -0.47006E-02  0.00000E+00  0.00000E+00  0.00000E+00    0.11461E+03  0.00000E+00  0.00000E+00 -0.26211E+00  0.17254E+00  0.31521E+00
  0.99998E-02  0.11532E+03    0.10000E-01 -0.47764E-02 -0.52236E-02  0.00000E+00  0.00000E+00  0.00000E+00    0.11532E+03  0.00000E+00  0.00000E+00 -0.26296E+00  0.17420E+00  0.31636E+00
  0.11000E-01  0.11602E+03    0.11000E-01 -0.52535E-02 -0.57465E-02  0.00000E+00  0.00000E+00  0.00000E+00    0.11602E+03  0.00000E+00  0.00000E+00 -0.26376E+00  0.17590E+00  0.31750E+00
  0.12000E-01  0.11672E+03    0.12000E-01 -0.57305E-02 -0.62695E-02  0.00000E+00  0.00000E+00  0.00000E+00    0.11672E+03  0.00000E+00  0.00000E+00 -0.26451E+00  0.17762E+00  0.31861E+00
  0.13000E-01  0.11742E+03    0.13000E-01 -0.62075E-02 -0.67925E-02  0.00000E+00  0.00000E+00  0.00000E+00    0.11742E+03  0.00000E+00  0.00000E+00 -0.26520E+00  0.17937E+00  0.31971E+00
  0.14000E-01  0.11811E+03    0.14000E-01 -0.66845E-02 -0.73155E-02  0.00000E+00  0.00000E+00  0.00000E+00    0.11811E+03  0.00000E+00  0.00000E+00 -0.26584E+00  0.18115E+00  0.32079E+00
  0.15000E-01  0.11880E+03    0.15000E-01 -0.71615E-02 -0.78385E-02  0.00000E+00  0.00000E+00  0.00000E+00    0.11880E+03  0.00000E+00  0.00000E+00 -0.26643E+00  0.18295E+00  0.32185E+00
  0.16000E-01  0.11948E+03    0.16000E-01 -0.76384E-02 -0.83616E-02  0.00000E+00  0.00000E+00  0.00000E+00    0.11948E+03  0.00000E+00  0.00000E+00 -0.26697E+00  0.18479E+00  0.32289E+00
  0.17000E-01  0.12016E+03    0.17000E-01 -0.81153E-02 -0.88847E-02  0.00000E+00  0.00000E+00  0.00000E+00    0.12016E+03  0.00000E+00  0.00000E+00 -0.26746E+00  0.18664E+00  0.32393E+00
  0.18000E-01  0.12084E+03    0.18000E-01 -0.85922E-02 -0.94078E-02  0.00000E+00  0.00000E+00  0.00000E+00    0.12084E+03  0.00000E+00  0.00000E+00 -0.26790E+00  0.18853E+00  0.32495E+00
  0.19000E-01  0.12151E+03    0.19000E-01 -0.90691E-02 -0.99309E-02  0.00000E+00  0.00000E+00  0.00000E+00    0.12151E+03  0.00000E+00  0.00000E+00 -0.26829E+00  0.19044E+00  0.32595E+00
  0.20000E-01  0.12218E+03    0.20000E-01 -0.95459E-02 -0.10454E-01  0.00000E+00  0.00000E+00  0.00000E+00    0.12217E+03  0.00000E+00  0.00000E+00 -0.26864E+00  0.19238E+00  0.32695E+00
  0.21000E-01  0.12284E+03    0.21000E-01 -0.10023E-01 -0.10977E-01  0.00000E+00  0.00000E+00  0.00000E+00    0.12284E+03  0.00000E+00  0.00000E+00 -0.26893E+00  0.19435E+00  0.32792E+00
  0.22000E-01  0.12350E+03    0.22000E-01 -0.10500E-01 -0.11500E-01  0.00000E+00  0.00000E+00  0.00000E+00    0.12350E+03  0.00000E+00  0.00000E+00 -0.26918E+00  0.19634E+00  0.32889E+00
  0.22999E-01  0.12415E+03    0.23000E-01 -0.10976E-01 -0.12024E-01  0.00000E+00  0.00000E+00  0.00000E+00    0.12415E+03  0.00000E+00  0.00000E+00 -0.26938E+00  0.19836E+00  0.32984E+00
  0.23999E-01  0.12480E+03    0.24000E-01 -0.11453E-01 -0.12547E-01  0.00000E+00  0.00000E+00  0.00000E+00    0.12480E+03  0.00000E+00  0.00000E+00 -0.26953E+00  0.20041E+00  0.33079E+00
  0.24999E-01  0.12545E+03    0.25000E-01 -0.11930E-01 -0.13070E-01  0.00000E+00  0.00000E+00  0.00000E+00    0.12545E+03  0.00000E+00  0.00000E+00 -0.26963E+00  0.20248E+00  0.33173E+00
  0.25999E-01  0.12610E+03    0.26000E-01 -0.12406E-01 -0.13594E-01  0.00000E+00  0.00000E+00  0.00000E+00    0.12609E+03  0.00000E+00  0.00000E+00 -0.26969E+00  0.20458E+00  0.33265E+00
  0.26999E-01  0.12674E+03    0.27000E-01 -0.12883E-01 -0.14117E-01  0.00000E+00  0.00000E+00  0.00000E+00    0.12673E+03  0.00000E+00  0.00000E+00 -0.26971E+00  0.20670E+00  0.33356E+00
  0.27999E-01  0.12737E+03    0.28000E-01 -0.13360E-01 -0.14640E-01  0.00000E+00  0.00000E+00  0.00000E+00    0.12737E+03  0.00000E+00  0.00000E+00 -0.26968E+00  0.20884E+00  0.33446E+00
  0.28999E-01  0.12800E+03    0.29000E-01 -0.13836E-01 -0.15164E-01  0.00000E+00  0.00000E+00  0.00000E+00    0.12800E+03  0.00000E+00  0.00000E+00 -0.26960E+00  0.21101E+00  0.33535E+00
  0.29999E-01  0.12863E+03    0.30000E-01 -0.14313E-01 -0.15687E-01  0.00000E+00  0.00000E+00  0.00000E+00    0.12863E+03  0.00000E+00  0.00000E+00 -0.26948E+00  0.21321E+00  0.33624E+00
  0.30999E-01  0.12926E+03    0.31000E-01 -0.14790E-01 -0.16210E-01  0.00000E+00  0.00000E+00  0.00000E+00    0.12925E+03  0.00000E+00  0.00000E+00 -0.26931E+00  0.21543E+00  0.33711E+00
  0.31999E-01  0.12988E+03    0.32000E-01 -0.15266E-01 -0.16734E-01  0.00000E+00  0.00000E+00  0.00000E+00    0.12988E+03  0.00000E+00  0.00000E+00 -0.26910E+00  0.21768E+00  0.33798E+00
  0.32999E-01  0.13050E+03    0.33000E-01 -0.15743E-01 -0.17257E-01  0.00000E+00  0.00000E+00  0.00000E+00    0.13049E+03  0.00000E+00  0.00000E+00 -0.26885E+00  0.21995E+00  0.33884E+00
  0.33999E-01  0.13111E+03    0.34000E-01 -0.16219E-01 -0.17781E-01  0.00000E+00  0.00000E+00  0.00000E+00    0.13111E+03  0.00000E+00  0.00000E+00 -0.26857E+00  0.22224E+00  0.33969E+00
  0.34999E-01  0.13172E+03    0.35000E-01 -0.16696E-01 -0.18304E-01  0.00000E+00  0.00000E+00  0.00000E+00    0.13172E+03  0.00000E+00  0.00000E+00 -0.26823E+00  0.22456E+00  0.34053E+00
  0.35999E-01  0.13233E+03    0.36000E-01 -0.17172E-01 -0.18828E-01  0.00000E+00  0.00000E+00  0.00000E+00    0.13232E+03  0.00000E+00  0.00000E+00 -0.26786E+00  0.22690E+00  0.34136E+00
  0.36999E-01  0.13293E+03    0.37000E-01 -0.17649E-01 -0.19351E-01  0.00000E+00  0.00000E+00  0.00000E+00    0.13293E+03  0.00000E+00  0.00000E+00 -0.26745E+00  0.22926E+00  0.34219E+00
  0.37999E-01  0.13353E+03    0.38000E-01 -0.18125E-01 -0.19875E-01  0.00000E+00  0.00000E+00  0.00000E+00    0.13353E+03  0.00000E+00  0.00000E+00 -0.26699E+00  0.23164E+00  0.34300E+00
  0.38999E-01  0.13413E+03    0.39000E-01 -0.18601E-01 -0.20399E-01  0.00000E+00  0.00000E+00  0.00000E+00    0.13412E+03  0.00000E+00  0.00000E+00 -0.26650E+00  0.23405E+00  0.34382E+00
  0.39999E-01  0.13472E+03    0.40000E-01 -0.19078E-01 -0.20922E-01  0.00000E+00  0.00000E+00  0.00000E+00    0.13472E+03  0.00000E+00  0.00000E+00 -0.26597E+00  0.23649E+00  0.34462E+00
  0.40999E-01  0.13531E+03    0.41000E-01 -0.19554E-01 -0.21446E-01  0.00000E+00  0.00000E+00  0.00000E+00    0.13530E+03  0.00000E+00  0.00000E+00 -0.26539E+00  0.23894E+00  0.34542E+00
  0.41999E-01  0.13585E+03    0.42000E-01 -0.20030E-01 -0.21970E-01  0.00000E+00  0.00000E+00  0.00000E+00    0.13585E+03  0.00000E+00  0.00000E+00 -0.26860E+00  0.23947E+00  0.34622E+00
  0.42999E-01  0.13647E+03    0.43000E-01 -0.20507E-01 -0.22493E-01  0.00000E+00  0.00000E+00  0.00000E+00    0.13647E+03  0.00000E+00  0.00000E+00 -0.26439E+00  0.24373E+00  0.34696E+00
  0.43999E-01  0.13701E+03    0.44000E-01 -0.20983E-01 -0.23017E-01  0.00000E+00  0.00000E+00  0.00000E+00    0.13701E+03  0.00000E+00  0.00000E+00 -0.26729E+00  0.24442E+00  0.34780E+00
  0.44999E-01  0.13759E+03    0.45000E-01 -0.21459E-01 -0.23541E-01  0.00000E+00  0.00000E+00  0.00000E+00    0.13759E+03  0.00000E+00  0.00000E+00 -0.26666E+00  0.24683E+00  0.34859E+00
  0.45999E-01  0.13816E+03    0.46000E-01 -0.21935E-01 -0.24065E-01  0.00000E+00  0.00000E+00  0.00000E+00    0.13816E+03  0.00000E+00  0.00000E+00 -0.26591E+00  0.24936E+00  0.34937E+00
  0.46999E-01  0.13873E+03    0.47000E-01 -0.22412E-01 -0.24588E-01  0.00000E+00  0.00000E+00  0.00000E+00    0.13873E+03  0.00000E+00  0.00000E+00 -0.26513E+00  0.25192E+00  0.35014E+00
  0.47999E-01  0.13930E+03    0.48000E-01 -0.22888E-01 -0.25112E-01  0.00000E+00  0.00000E+00  0.00000E+00    0.13929E+03  0.00000E+00  0.00000E+00 -0.26430E+00  0.25449E+00  0.35091E+00
  0.48999E-01  0.13986E+03    0.49000E-01 -0.23364E-01 -0.25636E-01  0.00000E+00  0.00000E+00  0.00000E+00    0.13986E+03  0.00000E+00  0.00000E+00 -0.26344E+00  0.25708E+00  0.35168E+00
  0.49999E-01  0.14042E+03    0.50000E-01 -0.23840E-01 -0.26160E-01  0.00000E+00  0.00000E+00  0.00000E+00    0.14042E+03  0.00000E+00  0.00000E+00 -0.26254E+00  0.25970E+00  0.35244E+00
  0.50999E-01  0.14098E+03    0.51000E-01 -0.24316E-01 -0.26684E-01  0.00000E+00  0.00000E+00  0.00000E+00    0.14097E+03  0.00000E+00  0.00000E+00 -0.26161E+00  0.26233E+00  0.35321E+00
  0.51999E-01  0.14155E+03    0.52000E-01 -0.24792E-01 -0.27208E-01  0.00000E+00  0.00000E+00  0.00000E+00    0.14155E+03  0.00000E+00  0.00000E+00 -0.25701E+00  0.26697E+00  0.35382E+00
  0.52999E-01  0.14208E+03    0.53000E-01 -0.25268E-01 -0.27732E-01  0.00000E+00  0.00000E+00  0.00000E+00    0.14208E+03  0.00000E+00  0.00000E+00 -0.25958E+00  0.26776E+00  0.35472E+00
  0.53999E-01  0.14265E+03    0.54000E-01 -0.25744E-01 -0.28256E-01  0.00000E+00  0.00000E+00  0.00000E+00    0.14265E+03  0.00000E+00  0.00000E+00 -0.25499E+00  0.27238E+00  0.35531E+00
  0.54999E-01  0.14317E+03    0.55000E-01 -0.26220E-01 -0.28780E-01  0.00000E+00  0.00000E+00  0.00000E+00    0.14317E+03  0.00000E+00  0.00000E+00 -0.25748E+00  0.27316E+00  0.35623E+00
  0.55999E-01  0.14370E+03    0.56000E-01 -0.26696E-01 -0.29304E-01  0.00000E+00  0.00000E+00  0.00000E+00    0.14370E+03  0.00000E+00  0.00000E+00 -0.25689E+00  0.27562E+00  0.35695E+00
  0.56999E-01  0.14425E+03    0.57000E-01 -0.27172E-01 -0.29828E-01  0.00000E+00  0.00000E+00  0.00000E+00    0.14425E+03  0.00000E+00  0.00000E+00 -0.25535E+00  0.27854E+00  0.35772E+00
  0.57999E-01  0.14477E+03    0.58000E-01 -0.27648E-01 -0.30352E-01  0.00000E+00  0.00000E+00  0.00000E+00    0.14477E+03  0.00000E+00  0.00000E+00 -0.25460E+00  0.28113E+00  0.35844E+00
  0.58999E-01  0.14532E+03    0.59000E-01 -0.28124E-01 -0.30876E-01  0.00000E+00  0.00000E+00  0.00000E+00    0.14532E+03  0.00000E+00  0.00000E+00 -0.25299E+00  0.28410E+00  0.35920E+00
  0.59999E-01  0.14584E+03    0.60000E-01 -0.28600E-01 -0.31400E-01  0.00000E+00  0.00000E+00  0.00000E+00    0.14583E+03  0.00000E+00  0.00000E+00 -0.25217E+00  0.28672E+00  0.35992E+00
  0.60999E-01  0.14638E+03    0.61000E-01 -0.29075E-01 -0.31925E-01  0.00000E+00  0.00000E+00  0.00000E+00    0.14637E+03  0.00000E+00  0.00000E+00 -0.25050E+00  0.28973E+00  0.36069E+00
  0.61999E-01  0.14689E+03    0.62000E-01 -0.29551E-01 -0.32449E-01  0.00000E+00  0.00000E+00  0.00000E+00    0.14688E+03  0.00000E+00  0.00000E+00 -0.24964E+00  0.29239E+00  0.36142E+00
  0.62999E-01  0.14742E+03    0.63000E-01 -0.30027E-01 -0.32973E-01  0.00000E+00  0.00000E+00  0.00000E+00    0.14742E+03  0.00000E+00  0.00000E+00 -0.24790E+00  0.29544E+00  0.36217E+00
  0.63999E-01  0.14792E+03    0.64000E-01 -0.30503E-01 -0.33497E-01  0.00000E+00  0.00000E+00  0.00000E+00    0.14792E+03  0.00000E+00  0.00000E+00 -0.24697E+00  0.29812E+00  0.36290E+00
  0.64999E-01  0.14845E+03    0.65000E-01 -0.30978E-01 -0.34022E-01  0.00000E+00  0.00000E+00  0.00000E+00    0.14845E+03  0.00000E+00  0.00000E+00 -0.24517E+00  0.30122E+00  0.36365E+00
  0.65999E-01  0.14895E+03    0.66000E-01 -0.31454E-01 -0.34546E-01  0.00000E+00  0.00000E+00  0.00000E+00    0.14895E+03  0.00000E+00  0.00000E+00 -0.24418E+00  0.30394E+00  0.36439E+00
  0.66999E-01  0.14946E+03    0.67000E-01 -0.31930E-01 -0.35070E-01  0.00000E+00  0.00000E+00  0.00000E+00    0.14946E+03  0.00000E+00  0.00000E+00 -0.24283E+00  0.30684E+00  0.36513E+00
  0.67999E-01  0.14997E+03    0.68000E-01 -0.32405E-01 -0.35595E-01  0.00000E+00  0.00000E+00  0.00000E+00    0.14996E+03  0.00000E+00  0.00000E+00 -0.24137E+00  0.30979E+00  0.36588E+00
  0.68999E-01  0.15047E+03    0.69000E-01 -0.32881E-01 -0.36119E-01  0.00000E+00  0.00000E+00  0.00000E+00    0.15047E+03  0.00000E+00  0.00000E+00 -0.23988E+00  0.31277E+00  0.36663E+00
  0.69999E-01  0.15097E+03    0.70000E-01 -0.33357E-01 -0.36643E-01  0.00000E+00  0.00000E+00  0.00000E+00    0.15097E+03  0.00000E+00  0.00000E+00 -0.23836E+00  0.31576E+00  0.36738E+00
  0.70999E-01  0.15147E+03    0.71000E-01 -0.33832E-01 -0.37168E-01  0.00000E+00  0.00000E+00  0.00000E+00    0.15147E+03  0.00000E+00  0.00000E+00 -0.23681E+00  0.31876E+00  0.36813E+00
  0.71999E-01  0.15197E+03    0.72000E-01 -0.34308E-01 -0.37692E-01  0.00000E+00  0.00000E+00  0.00000E+00    0.15196E+03  0.00000E+00  0.00000E+00 -0.23524E+00  0.32179E+00  0.36889E+00
  0.72998E-01  0.15246E+03    0.73000E-01 -0.34783E-01 -0.38217E-01  0.00000E+00  0.00000E+00  0.00000E+00    0.15246E+03  0.00000E+00  0.00000E+00 -0.23363E+00  0.32483E+00  0.36965E+00
  0.73998E-01  0.15295E+03    0.74000E-01 -0.35259E-01 -0.38741E-01  0.00000E+00  0.00000E+00  0.00000E+00    0.15295E+03  0.00000E+00  0.00000E+00 -0.23200E+00  0.32790E+00  0.37041E+00
  0.74998E-01  0.15344E+03    0.75000E-01 -0.35734E-01 -0.39266E-01  0.00000E+00  0.00000E+00  0.00000E+00    0.15344E+03  0.00000E+00  0.00000E+00 -0.23035E+00  0.33098E+00  0.37118E+00
  0.75998E-01  0.15392E+03    0.76000E-01 -0.36209E-01 -0.39791E-01  0.00000E+00  0.00000E+00  0.00000E+00    0.15392E+03  0.00000E+00  0.00000E+00 -0.22866E+00  0.33408E+00  0.37195E+00
  0.76998E-01  0.15441E+03    0.77000E-01 -0.36685E-01 -0.40315E-01  0.00000E+00  0.00000E+00  0.00000E+00    0.15440E+03  0.00000E+00  0.00000E+00 -0.22695E+00  0.33720E+00  0.37273E+00
  0.77998E-01  0.15489E+03    0.78000E-01 -0.37160E-01 -0.40840E-01  0.00000E+00  0.00000E+00  0.00000E+00    0.15489E+03  0.00000E+00  0.00000E+00 -0.22522E+00  0.34034E+00  0.37352E+00
  0.78998E-01  0.15537E+03    0.79000E-01 -0.37636E-01 -0.41364E-01  0.00000E+00  0.00000E+00  0.00000E+00    0.15536E+03  0.00000E+00  0.00000E+00 -0.22346E+00  0.34350E+00  0.37431E+00
  0.79998E-01  0.15584E+03    0.80000E-01 -0.38111E-01 -0.41889E-01  0.00000E+00  0.00000E+00  0.00000E+00    0.15584E+03  0.00000E+00  0.00000E+00 -0.22167E+00  0.34668E+00  0.37511E+00
  0.80998E-01  0.15631E+03    0.81000E-01 -0.38586E-01 -0.42414E-01  0.00000E+00  0.00000E+00  0.00000E+00    0.15631E+03  0.00000E+00  0.00000E+00 -0.21986E+00  0.34987E+00  0.37591E+00
  0.81998E-01  0.15679E+03    0.82000E-01 -0.39061E-01 -0.42939E-01  0.00000E+00  0.00000E+00  0.00000E+00    0.15678E+03  0.00000E+00  0.00000E+00 -0.20947E+00  0.35707E+00  0.37677E+00
  0.82998E-01  0.15722E+03    0.83000E-01 -0.39537E-01 -0.43463E-01  0.00000E+00  0.00000E+00  0.00000E+00    0.15722E+03  0.00000E+00  0.00000E+00 -0.20985E+00  0.35982E+00  0.37770E+00
  0.83998E-01  0.15768E+03    0.84000E-01 -0.40012E-01 -0.43988E-01  0.00000E+00  0.00000E+00  0.00000E+00    0.15768E+03  0.00000E+00  0.00000E+00 -0.20762E+00  0.36320E+00  0.37856E+00
  0.84998E-01  0.15814E+03    0.85000E-01 -0.40487E-01 -0.44513E-01  0.00000E+00  0.00000E+00  0.00000E+00    0.15814E+03  0.00000E+00  0.00000E+00 -0.20571E+00  0.36651E+00  0.37941E+00
  0.85998E-01  0.15860E+03    0.86000E-01 -0.40962E-01 -0.45038E-01  0.00000E+00  0.00000E+00  0.00000E+00    0.15860E+03  0.00000E+00  0.00000E+00 -0.20378E+00  0.36984E+00  0.38027E+00
  0.86998E-01  0.15906E+03    0.87000E-01 -0.41437E-01 -0.45563E-01  0.00000E+00  0.00000E+00  0.00000E+00    0.15906E+03  0.00000E+00  0.00000E+00 -0.20182E+00  0.37318E+00  0.38113E+00
  0.87998E-01  0.15958E+03    0.88000E-01 -0.41912E-01 -0.46088E-01  0.00000E+00  0.00000E+00  0.00000E+00    0.15958E+03  0.00000E+00  0.00000E+00 -0.19790E+00  0.37736E+00  0.38190E+00
  0.88998E-01  0.16004E+03    0.89000E-01 -0.42387E-01 -0.46613E-01  0.00000E+00  0.00000E+00  0.00000E+00    0.16004E+03  0.00000E+00  0.00000E+00 -0.19640E+00  0.38063E+00  0.38275E+00
  0.89998E-01  0.16049E+03    0.90000E-01 -0.42862E-01 -0.47138E-01  0.00000E+00  0.00000E+00  0.00000E+00    0.16049E+03  0.00000E+00  0.00000E+00 -0.19438E+00  0.38405E+00  0.38364E+00
  0.90998E-01  0.16094E+03    0.91000E-01 -0.43337E-01 -0.47663E-01  0.00000E+00  0.00000E+00  0.00000E+00    0.16094E+03  0.00000E+00  0.00000E+00 -0.19233E+00  0.38749E+00  0.38454E+00
  0.91998E-01  0.16139E+03    0.92000E-01 -0.43812E-01 -0.48188E-01  0.00000E+00  0.00000E+00  0.00000E+00    0.16139E+03  0.00000E+00  0.00000E+00 -0.19026E+00  0.39095E+00  0.38546E+00
  0.92998E-01  0.16183E+03    0.93000E-01 -0.44287E-01 -0.48713E-01  0.00000E+00  0.00000E+00  0.00000E+00    0.16183E+03  0.00000E+00  0.00000E+00 -0.18817E+00  0.39443E+00  0.38639E+00
  0.93998E-01  0.16228E+03    0.94000E-01 -0.44762E-01 -0.49238E-01  0.00000E+00  0.00000E+00  0.00000E+00    0.16227E+03  0.00000E+00  0.00000E+00 -0.18607E+00  0.39793E+00  0.38734E+00
  0.94998E-01  0.16272E+03    0.95000E-01 -0.45237E-01 -0.49763E-01  0.00000E+00  0.00000E+00  0.00000E+00    0.16271E+03  0.00000E+00  0.00000E+00 -0.18394E+00  0.40145E+00  0.38830E+00
  0.95998E-01  0.16315E+03    0.96000E-01 -0.45712E-01 -0.50288E-01  0.00000E+00  0.00000E+00  0.00000E+00    0.16315E+03  0.00000E+00  0.00000E+00 -0.18180E+00  0.40500E+00  0.38927E+00
  0.96998E-01  0.16359E+03    0.97000E-01 -0.46187E-01 -0.50813E-01  0.00000E+00  0.00000E+00  0.00000E+00    0.16359E+03  0.00000E+00  0.00000E+00 -0.17963E+00  0.40857E+00  0.39026E+00
  0.97998E-01  0.16402E+03    0.98000E-01 -0.46662E-01 -0.51338E-01  0.00000E+00  0.00000E+00  0.00000E+00    0.16402E+03  0.00000E+00  0.00000E+00 -0.17744E+00  0.41216E+00  0.39126E+00
  0.98998E-01  0.16445E+03    0.99000E-01 -0.47136E-01 -0.51864E-01  0.00000E+00  0.00000E+00  0.00000E+00    0.16445E+03  0.00000E+00  0.00000E+00 -0.17524E+00  0.41578E+00  0.39228E+00
  0.99998E-01  0.16488E+03    0.10000E+00 -0.47611E-01 -0.52389E-01  0.00000E+00  0.00000E+00  0.00000E+00    0.16488E+03  0.00000E+00  0.00000E+00 -0.17302E+00  0.41942E+00  0.39332E+00
