          Evm          Svm            E11          E22          E33          E23          E13          E12         SCAU11       SCAU22       SCAU33       SCAU23       SCAU13       SCAU12      TEMP
  0.00000E+00  0.10460E+03    0.00000E+00  0.00000E+00  0.00000E+00  0.00000E+00  0.00000E+00  0.00000E+00    0.10460E+03  0.00000E+00  0.00000E+00 -0.24260E+00  0.15041E+00  0.28903E+00
  0.99998E-03  0.10531E+03    0.10000E-02 -0.47967E-03 -0.52033E-03  0.00000E+00  0.00000E+00  0.00000E+00    0.10531E+03  0.00000E+00  0.00000E+00 -0.24818E+00  0.15407E+00  0.29294E+00
  0.20000E-02  0.10598E+03    0.20000E-02 -0.95784E-03 -0.10422E-02  0.00000E+00  0.00000E+00  0.00000E+00    0.10598E+03  0.00000E+00  0.00000E+00 -0.24864E+00  0.15537E+00  0.29556E+00
  0.29999E-02  0.10672E+03    0.30000E-02 -0.14356E-02 -0.15644E-02  0.00000E+00  0.00000E+00  0.00000E+00    0.10672E+03  0.00000E+00  0.00000E+00 -0.25004E+00  0.15679E+00  0.29739E+00
  0.39999E-02  0.10745E+03    0.40000E-02 -0.19132E-02 -0.20868E-02  0.00000E+00  0.00000E+00  0.00000E+00    0.10745E+03  0.00000E+00  0.00000E+00 -0.25126E+00  0.15823E+00  0.29892E+00
  0.49999E-02  0.10819E+03    0.50000E-02 -0.23906E-02 -0.26094E-02  0.00000E+00  0.00000E+00  0.00000E+00    0.10818E+03  0.00000E+00  0.00000E+00 -0.25243E+00  0.15972E+00  0.30032E+00
  0.59999E-02  0.10890E+03    0.60000E-02 -0.28678E-02 -0.31322E-02  0.00000E+00  0.00000E+00  0.00000E+00    0.10890E+03  0.00000E+00  0.00000E+00 -0.25111E+00  0.16225E+00  0.30168E+00
  0.69998E-02  0.10963E+03    0.70000E-02 -0.33451E-02 -0.36549E-02  0.00000E+00  0.00000E+00  0.00000E+00    0.10963E+03  0.00000E+00  0.00000E+00 -0.25217E+00  0.16397E+00  0.30298E+00
  0.79998E-02  0.11035E+03    0.80000E-02 -0.38222E-02 -0.41778E-02  0.00000E+00  0.00000E+00  0.00000E+00    0.11035E+03  0.00000E+00  0.00000E+00 -0.25317E+00  0.16557E+00  0.30420E+00
  0.89998E-02  0.11106E+03    0.90000E-02 -0.42993E-02 -0.47007E-02  0.00000E+00  0.00000E+00  0.00000E+00    0.11106E+03  0.00000E+00  0.00000E+00 -0.25410E+00  0.16718E+00  0.30541E+00
  0.99998E-02  0.11177E+03    0.10000E-01 -0.47764E-02 -0.52236E-02  0.00000E+00  0.00000E+00  0.00000E+00    0.11177E+03  0.00000E+00  0.00000E+00 -0.25499E+00  0.16882E+00  0.30658E+00
  0.11000E-01  0.11248E+03    0.11000E-01 -0.52535E-02 -0.57465E-02  0.00000E+00  0.00000E+00  0.00000E+00    0.11247E+03  0.00000E+00  0.00000E+00 -0.25582E+00  0.17049E+00  0.30774E+00
  0.12000E-01  0.11318E+03    0.12000E-01 -0.57305E-02 -0.62695E-02  0.00000E+00  0.00000E+00  0.00000E+00    0.11317E+03  0.00000E+00  0.00000E+00 -0.25659E+00  0.17219E+00  0.30887E+00
  0.13000E-01  0.11387E+03    0.13000E-01 -0.62075E-02 -0.67925E-02  0.00000E+00  0.00000E+00  0.00000E+00    0.11387E+03  0.00000E+00  0.00000E+00 -0.25732E+00  0.17392E+00  0.30998E+00
  0.14000E-01  0.11456E+03    0.14000E-01 -0.66845E-02 -0.73155E-02  0.00000E+00  0.00000E+00  0.00000E+00    0.11456E+03  0.00000E+00  0.00000E+00 -0.25800E+00  0.17567E+00  0.31108E+00
  0.15000E-01  0.11525E+03    0.15000E-01 -0.71614E-02 -0.78386E-02  0.00000E+00  0.00000E+00  0.00000E+00    0.11525E+03  0.00000E+00  0.00000E+00 -0.25862E+00  0.17745E+00  0.31216E+00
  0.16000E-01  0.11593E+03    0.16000E-01 -0.76384E-02 -0.83616E-02  0.00000E+00  0.00000E+00  0.00000E+00    0.11593E+03  0.00000E+00  0.00000E+00 -0.25919E+00  0.17925E+00  0.31323E+00
  0.17000E-01  0.11661E+03    0.17000E-01 -0.81153E-02 -0.88847E-02  0.00000E+00  0.00000E+00  0.00000E+00    0.11661E+03  0.00000E+00  0.00000E+00 -0.25972E+00  0.18108E+00  0.31429E+00
  0.18000E-01  0.11729E+03    0.18000E-01 -0.85922E-02 -0.94078E-02  0.00000E+00  0.00000E+00  0.00000E+00    0.11729E+03  0.00000E+00  0.00000E+00 -0.26019E+00  0.18294E+00  0.31533E+00
  0.19000E-01  0.11796E+03    0.19000E-01 -0.90690E-02 -0.99310E-02  0.00000E+00  0.00000E+00  0.00000E+00    0.11796E+03  0.00000E+00  0.00000E+00 -0.26062E+00  0.18483E+00  0.31635E+00
  0.20000E-01  0.11863E+03    0.20000E-01 -0.95459E-02 -0.10454E-01  0.00000E+00  0.00000E+00  0.00000E+00    0.11862E+03  0.00000E+00  0.00000E+00 -0.26099E+00  0.18674E+00  0.31736E+00
  0.21000E-01  0.11929E+03    0.21000E-01 -0.10023E-01 -0.10977E-01  0.00000E+00  0.00000E+00  0.00000E+00    0.11929E+03  0.00000E+00  0.00000E+00 -0.26133E+00  0.18868E+00  0.31836E+00
  0.22000E-01  0.11995E+03    0.22000E-01 -0.10500E-01 -0.11500E-01  0.00000E+00  0.00000E+00  0.00000E+00    0.11995E+03  0.00000E+00  0.00000E+00 -0.26161E+00  0.19064E+00  0.31935E+00
  0.22999E-01  0.12060E+03    0.23000E-01 -0.10976E-01 -0.12024E-01  0.00000E+00  0.00000E+00  0.00000E+00    0.12060E+03  0.00000E+00  0.00000E+00 -0.26185E+00  0.19263E+00  0.32032E+00
  0.23999E-01  0.12125E+03    0.24000E-01 -0.11453E-01 -0.12547E-01  0.00000E+00  0.00000E+00  0.00000E+00    0.12125E+03  0.00000E+00  0.00000E+00 -0.26204E+00  0.19464E+00  0.32128E+00
  0.24999E-01  0.12190E+03    0.25000E-01 -0.11930E-01 -0.13070E-01  0.00000E+00  0.00000E+00  0.00000E+00    0.12190E+03  0.00000E+00  0.00000E+00 -0.26218E+00  0.19668E+00  0.32223E+00
  0.25999E-01  0.12255E+03    0.26000E-01 -0.12406E-01 -0.13594E-01  0.00000E+00  0.00000E+00  0.00000E+00    0.12254E+03  0.00000E+00  0.00000E+00 -0.26228E+00  0.19875E+00  0.32318E+00
  0.26999E-01  0.12319E+03    0.27000E-01 -0.12883E-01 -0.14117E-01  0.00000E+00  0.00000E+00  0.00000E+00    0.12318E+03  0.00000E+00  0.00000E+00 -0.26233E+00  0.20084E+00  0.32411E+00
  0.27999E-01  0.12382E+03    0.28000E-01 -0.13360E-01 -0.14640E-01  0.00000E+00  0.00000E+00  0.00000E+00    0.12382E+03  0.00000E+00  0.00000E+00 -0.26234E+00  0.20296E+00  0.32503E+00
  0.28999E-01  0.12445E+03    0.29000E-01 -0.13836E-01 -0.15164E-01  0.00000E+00  0.00000E+00  0.00000E+00    0.12445E+03  0.00000E+00  0.00000E+00 -0.26230E+00  0.20510E+00  0.32594E+00
  0.29999E-01  0.12508E+03    0.30000E-01 -0.14313E-01 -0.15687E-01  0.00000E+00  0.00000E+00  0.00000E+00    0.12508E+03  0.00000E+00  0.00000E+00 -0.26222E+00  0.20726E+00  0.32685E+00
  0.30999E-01  0.12571E+03    0.31000E-01 -0.14790E-01 -0.16210E-01  0.00000E+00  0.00000E+00  0.00000E+00    0.12570E+03  0.00000E+00  0.00000E+00 -0.26210E+00  0.20945E+00  0.32774E+00
  0.31999E-01  0.12633E+03    0.32000E-01 -0.15266E-01 -0.16734E-01  0.00000E+00  0.00000E+00  0.00000E+00    0.12632E+03  0.00000E+00  0.00000E+00 -0.26193E+00  0.21166E+00  0.32862E+00
  0.32999E-01  0.12694E+03    0.33000E-01 -0.15743E-01 -0.17257E-01  0.00000E+00  0.00000E+00  0.00000E+00    0.12694E+03  0.00000E+00  0.00000E+00 -0.26172E+00  0.21390E+00  0.32950E+00
  0.33999E-01  0.12756E+03    0.34000E-01 -0.16219E-01 -0.17781E-01  0.00000E+00  0.00000E+00  0.00000E+00    0.12756E+03  0.00000E+00  0.00000E+00 -0.26147E+00  0.21616E+00  0.33036E+00
  0.34999E-01  0.12817E+03    0.35000E-01 -0.16696E-01 -0.18304E-01  0.00000E+00  0.00000E+00  0.00000E+00    0.12817E+03  0.00000E+00  0.00000E+00 -0.26118E+00  0.21844E+00  0.33123E+00
  0.35999E-01  0.12877E+03    0.36000E-01 -0.17172E-01 -0.18828E-01  0.00000E+00  0.00000E+00  0.00000E+00    0.12877E+03  0.00000E+00  0.00000E+00 -0.26085E+00  0.22074E+00  0.33208E+00
  0.36999E-01  0.12938E+03    0.37000E-01 -0.17649E-01 -0.19351E-01  0.00000E+00  0.00000E+00  0.00000E+00    0.12937E+03  0.00000E+00  0.00000E+00 -0.26048E+00  0.22307E+00  0.33292E+00
  0.37999E-01  0.12998E+03    0.38000E-01 -0.18125E-01 -0.19875E-01  0.00000E+00  0.00000E+00  0.00000E+00    0.12997E+03  0.00000E+00  0.00000E+00 -0.26007E+00  0.22542E+00  0.33376E+00
  0.38999E-01  0.13057E+03    0.39000E-01 -0.18601E-01 -0.20399E-01  0.00000E+00  0.00000E+00  0.00000E+00    0.13057E+03  0.00000E+00  0.00000E+00 -0.25962E+00  0.22779E+00  0.33459E+00
  0.39999E-01  0.13117E+03    0.40000E-01 -0.19078E-01 -0.20922E-01  0.00000E+00  0.00000E+00  0.00000E+00    0.13116E+03  0.00000E+00  0.00000E+00 -0.25913E+00  0.23019E+00  0.33541E+00
  0.40999E-01  0.13175E+03    0.41000E-01 -0.19554E-01 -0.21446E-01  0.00000E+00  0.00000E+00  0.00000E+00    0.13175E+03  0.00000E+00  0.00000E+00 -0.25860E+00  0.23260E+00  0.33623E+00
  0.41999E-01  0.13234E+03    0.42000E-01 -0.20030E-01 -0.21970E-01  0.00000E+00  0.00000E+00  0.00000E+00    0.13234E+03  0.00000E+00  0.00000E+00 -0.25804E+00  0.23504E+00  0.33704E+00
  0.42999E-01  0.13292E+03    0.43000E-01 -0.20507E-01 -0.22493E-01  0.00000E+00  0.00000E+00  0.00000E+00    0.13292E+03  0.00000E+00  0.00000E+00 -0.25743E+00  0.23750E+00  0.33784E+00
  0.43999E-01  0.13350E+03    0.44000E-01 -0.20983E-01 -0.23017E-01  0.00000E+00  0.00000E+00  0.00000E+00    0.13350E+03  0.00000E+00  0.00000E+00 -0.25679E+00  0.23998E+00  0.33864E+00
  0.44999E-01  0.13404E+03    0.45000E-01 -0.21459E-01 -0.23541E-01  0.00000E+00  0.00000E+00  0.00000E+00    0.13403E+03  0.00000E+00  0.00000E+00 -0.25993E+00  0.24048E+00  0.33945E+00
  0.45999E-01  0.13464E+03    0.46000E-01 -0.21935E-01 -0.24065E-01  0.00000E+00  0.00000E+00  0.00000E+00    0.13464E+03  0.00000E+00  0.00000E+00 -0.25566E+00  0.24482E+00  0.34018E+00
  0.46999E-01  0.13518E+03    0.47000E-01 -0.22412E-01 -0.24588E-01  0.00000E+00  0.00000E+00  0.00000E+00    0.13517E+03  0.00000E+00  0.00000E+00 -0.25849E+00  0.24548E+00  0.34104E+00
  0.47999E-01  0.13575E+03    0.48000E-01 -0.22888E-01 -0.25112E-01  0.00000E+00  0.00000E+00  0.00000E+00    0.13574E+03  0.00000E+00  0.00000E+00 -0.25780E+00  0.24792E+00  0.34183E+00
  0.48999E-01  0.13631E+03    0.49000E-01 -0.23364E-01 -0.25636E-01  0.00000E+00  0.00000E+00  0.00000E+00    0.13631E+03  0.00000E+00  0.00000E+00 -0.25699E+00  0.25047E+00  0.34261E+00
  0.49999E-01  0.13687E+03    0.50000E-01 -0.23840E-01 -0.26160E-01  0.00000E+00  0.00000E+00  0.00000E+00    0.13687E+03  0.00000E+00  0.00000E+00 -0.25614E+00  0.25305E+00  0.34339E+00
  0.50999E-01  0.13742E+03    0.51000E-01 -0.24316E-01 -0.26684E-01  0.00000E+00  0.00000E+00  0.00000E+00    0.13742E+03  0.00000E+00  0.00000E+00 -0.25526E+00  0.25564E+00  0.34416E+00
  0.51999E-01  0.13798E+03    0.52000E-01 -0.24792E-01 -0.27208E-01  0.00000E+00  0.00000E+00  0.00000E+00    0.13798E+03  0.00000E+00  0.00000E+00 -0.25434E+00  0.25825E+00  0.34494E+00
  0.52999E-01  0.13853E+03    0.53000E-01 -0.25268E-01 -0.27732E-01  0.00000E+00  0.00000E+00  0.00000E+00    0.13853E+03  0.00000E+00  0.00000E+00 -0.25339E+00  0.26089E+00  0.34571E+00
  0.53999E-01  0.13908E+03    0.54000E-01 -0.25744E-01 -0.28256E-01  0.00000E+00  0.00000E+00  0.00000E+00    0.13907E+03  0.00000E+00  0.00000E+00 -0.25240E+00  0.26354E+00  0.34647E+00
  0.54999E-01  0.13964E+03    0.55000E-01 -0.26220E-01 -0.28780E-01  0.00000E+00  0.00000E+00  0.00000E+00    0.13964E+03  0.00000E+00  0.00000E+00 -0.24776E+00  0.26824E+00  0.34707E+00
  0.55999E-01  0.14016E+03    0.56000E-01 -0.26696E-01 -0.29304E-01  0.00000E+00  0.00000E+00  0.00000E+00    0.14016E+03  0.00000E+00  0.00000E+00 -0.25027E+00  0.26900E+00  0.34801E+00
  0.56999E-01  0.14072E+03    0.57000E-01 -0.27172E-01 -0.29828E-01  0.00000E+00  0.00000E+00  0.00000E+00    0.14072E+03  0.00000E+00  0.00000E+00 -0.24564E+00  0.27367E+00  0.34858E+00
  0.57999E-01  0.14123E+03    0.58000E-01 -0.27648E-01 -0.30352E-01  0.00000E+00  0.00000E+00  0.00000E+00    0.14123E+03  0.00000E+00  0.00000E+00 -0.24807E+00  0.27444E+00  0.34952E+00
  0.58999E-01  0.14175E+03    0.59000E-01 -0.28124E-01 -0.30876E-01  0.00000E+00  0.00000E+00  0.00000E+00    0.14175E+03  0.00000E+00  0.00000E+00 -0.24743E+00  0.27689E+00  0.35025E+00
  0.59999E-01  0.14230E+03    0.60000E-01 -0.28600E-01 -0.31400E-01  0.00000E+00  0.00000E+00  0.00000E+00    0.14229E+03  0.00000E+00  0.00000E+00 -0.24584E+00  0.27984E+00  0.35103E+00
  0.60999E-01  0.14281E+03    0.61000E-01 -0.29075E-01 -0.31925E-01  0.00000E+00  0.00000E+00  0.00000E+00    0.14280E+03  0.00000E+00  0.00000E+00 -0.24505E+00  0.28243E+00  0.35176E+00
  0.61999E-01  0.14335E+03    0.62000E-01 -0.29551E-01 -0.32449E-01  0.00000E+00  0.00000E+00  0.00000E+00    0.14334E+03  0.00000E+00  0.00000E+00 -0.24339E+00  0.28542E+00  0.35254E+00
  0.62999E-01  0.14385E+03    0.63000E-01 -0.30027E-01 -0.32973E-01  0.00000E+00  0.00000E+00  0.00000E+00    0.14385E+03  0.00000E+00  0.00000E+00 -0.24254E+00  0.28805E+00  0.35327E+00
  0.63999E-01  0.14438E+03    0.64000E-01 -0.30503E-01 -0.33497E-01  0.00000E+00  0.00000E+00  0.00000E+00    0.14438E+03  0.00000E+00  0.00000E+00 -0.24082E+00  0.29108E+00  0.35404E+00
  0.64999E-01  0.14488E+03    0.65000E-01 -0.30978E-01 -0.34022E-01  0.00000E+00  0.00000E+00  0.00000E+00    0.14488E+03  0.00000E+00  0.00000E+00 -0.23992E+00  0.29374E+00  0.35479E+00
  0.65999E-01  0.14541E+03    0.66000E-01 -0.31454E-01 -0.34546E-01  0.00000E+00  0.00000E+00  0.00000E+00    0.14541E+03  0.00000E+00  0.00000E+00 -0.23814E+00  0.29681E+00  0.35555E+00
  0.66999E-01  0.14591E+03    0.67000E-01 -0.31930E-01 -0.35070E-01  0.00000E+00  0.00000E+00  0.00000E+00    0.14590E+03  0.00000E+00  0.00000E+00 -0.23718E+00  0.29950E+00  0.35630E+00
  0.67999E-01  0.14643E+03    0.68000E-01 -0.32405E-01 -0.35595E-01  0.00000E+00  0.00000E+00  0.00000E+00    0.14642E+03  0.00000E+00  0.00000E+00 -0.23534E+00  0.30261E+00  0.35706E+00
  0.68999E-01  0.14692E+03    0.69000E-01 -0.32881E-01 -0.36119E-01  0.00000E+00  0.00000E+00  0.00000E+00    0.14691E+03  0.00000E+00  0.00000E+00 -0.23431E+00  0.30534E+00  0.35782E+00
  0.69999E-01  0.14742E+03    0.70000E-01 -0.33357E-01 -0.36643E-01  0.00000E+00  0.00000E+00  0.00000E+00    0.14741E+03  0.00000E+00  0.00000E+00 -0.23292E+00  0.30825E+00  0.35858E+00
  0.70999E-01  0.14791E+03    0.71000E-01 -0.33832E-01 -0.37168E-01  0.00000E+00  0.00000E+00  0.00000E+00    0.14791E+03  0.00000E+00  0.00000E+00 -0.23143E+00  0.31121E+00  0.35934E+00
  0.71999E-01  0.14841E+03    0.72000E-01 -0.34308E-01 -0.37692E-01  0.00000E+00  0.00000E+00  0.00000E+00    0.14841E+03  0.00000E+00  0.00000E+00 -0.22991E+00  0.31419E+00  0.36011E+00
  0.72998E-01  0.14890E+03    0.73000E-01 -0.34783E-01 -0.38217E-01  0.00000E+00  0.00000E+00  0.00000E+00    0.14890E+03  0.00000E+00  0.00000E+00 -0.22836E+00  0.31719E+00  0.36088E+00
  0.73998E-01  0.14939E+03    0.74000E-01 -0.35259E-01 -0.38741E-01  0.00000E+00  0.00000E+00  0.00000E+00    0.14939E+03  0.00000E+00  0.00000E+00 -0.22678E+00  0.32021E+00  0.36165E+00
  0.74998E-01  0.14988E+03    0.75000E-01 -0.35734E-01 -0.39266E-01  0.00000E+00  0.00000E+00  0.00000E+00    0.14988E+03  0.00000E+00  0.00000E+00 -0.22517E+00  0.32325E+00  0.36243E+00
  0.75998E-01  0.15037E+03    0.76000E-01 -0.36210E-01 -0.39790E-01  0.00000E+00  0.00000E+00  0.00000E+00    0.15036E+03  0.00000E+00  0.00000E+00 -0.22354E+00  0.32630E+00  0.36321E+00
  0.76998E-01  0.15085E+03    0.77000E-01 -0.36685E-01 -0.40315E-01  0.00000E+00  0.00000E+00  0.00000E+00    0.15085E+03  0.00000E+00  0.00000E+00 -0.22189E+00  0.32937E+00  0.36400E+00
  0.77998E-01  0.15133E+03    0.78000E-01 -0.37160E-01 -0.40840E-01  0.00000E+00  0.00000E+00  0.00000E+00    0.15133E+03  0.00000E+00  0.00000E+00 -0.22020E+00  0.33247E+00  0.36479E+00
  0.78998E-01  0.15181E+03    0.79000E-01 -0.37636E-01 -0.41364E-01  0.00000E+00  0.00000E+00  0.00000E+00    0.15180E+03  0.00000E+00  0.00000E+00 -0.21850E+00  0.33558E+00  0.36559E+00
  0.79998E-01  0.15228E+03    0.80000E-01 -0.38111E-01 -0.41889E-01  0.00000E+00  0.00000E+00  0.00000E+00    0.15228E+03  0.00000E+00  0.00000E+00 -0.21676E+00  0.33871E+00  0.36639E+00
  0.80998E-01  0.15275E+03    0.81000E-01 -0.38586E-01 -0.42414E-01  0.00000E+00  0.00000E+00  0.00000E+00    0.15275E+03  0.00000E+00  0.00000E+00 -0.21500E+00  0.34186E+00  0.36721E+00
  0.81998E-01  0.15322E+03    0.82000E-01 -0.39061E-01 -0.42939E-01  0.00000E+00  0.00000E+00  0.00000E+00    0.15322E+03  0.00000E+00  0.00000E+00 -0.21322E+00  0.34503E+00  0.36802E+00
  0.82998E-01  0.15369E+03    0.83000E-01 -0.39537E-01 -0.43463E-01  0.00000E+00  0.00000E+00  0.00000E+00    0.15369E+03  0.00000E+00  0.00000E+00 -0.21141E+00  0.34821E+00  0.36885E+00
  0.83998E-01  0.15416E+03    0.84000E-01 -0.40012E-01 -0.43988E-01  0.00000E+00  0.00000E+00  0.00000E+00    0.15416E+03  0.00000E+00  0.00000E+00 -0.20958E+00  0.35143E+00  0.36968E+00
  0.84998E-01  0.15462E+03    0.85000E-01 -0.40487E-01 -0.44513E-01  0.00000E+00  0.00000E+00  0.00000E+00    0.15462E+03  0.00000E+00  0.00000E+00 -0.19920E+00  0.35870E+00  0.37057E+00
  0.85998E-01  0.15505E+03    0.86000E-01 -0.40962E-01 -0.45038E-01  0.00000E+00  0.00000E+00  0.00000E+00    0.15505E+03  0.00000E+00  0.00000E+00 -0.19955E+00  0.36145E+00  0.37155E+00
  0.86998E-01  0.15550E+03    0.87000E-01 -0.41437E-01 -0.45563E-01  0.00000E+00  0.00000E+00  0.00000E+00    0.15550E+03  0.00000E+00  0.00000E+00 -0.19731E+00  0.36484E+00  0.37244E+00
  0.87998E-01  0.15596E+03    0.88000E-01 -0.41912E-01 -0.46088E-01  0.00000E+00  0.00000E+00  0.00000E+00    0.15595E+03  0.00000E+00  0.00000E+00 -0.19538E+00  0.36816E+00  0.37333E+00
  0.88998E-01  0.15641E+03    0.89000E-01 -0.42388E-01 -0.46612E-01  0.00000E+00  0.00000E+00  0.00000E+00    0.15641E+03  0.00000E+00  0.00000E+00 -0.19343E+00  0.37149E+00  0.37422E+00
  0.89998E-01  0.15692E+03    0.90000E-01 -0.42863E-01 -0.47137E-01  0.00000E+00  0.00000E+00  0.00000E+00    0.15692E+03  0.00000E+00  0.00000E+00 -0.18951E+00  0.37567E+00  0.37501E+00
  0.90998E-01  0.15738E+03    0.91000E-01 -0.43338E-01 -0.47662E-01  0.00000E+00  0.00000E+00  0.00000E+00    0.15738E+03  0.00000E+00  0.00000E+00 -0.18801E+00  0.37894E+00  0.37589E+00
  0.91998E-01  0.15783E+03    0.92000E-01 -0.43813E-01 -0.48187E-01  0.00000E+00  0.00000E+00  0.00000E+00    0.15782E+03  0.00000E+00  0.00000E+00 -0.18600E+00  0.38234E+00  0.37681E+00
  0.92998E-01  0.15827E+03    0.93000E-01 -0.44288E-01 -0.48712E-01  0.00000E+00  0.00000E+00  0.00000E+00    0.15827E+03  0.00000E+00  0.00000E+00 -0.18397E+00  0.38578E+00  0.37774E+00
  0.93998E-01  0.15871E+03    0.94000E-01 -0.44762E-01 -0.49238E-01  0.00000E+00  0.00000E+00  0.00000E+00    0.15871E+03  0.00000E+00  0.00000E+00 -0.18191E+00  0.38923E+00  0.37869E+00
  0.94998E-01  0.15915E+03    0.95000E-01 -0.45237E-01 -0.49763E-01  0.00000E+00  0.00000E+00  0.00000E+00    0.15915E+03  0.00000E+00  0.00000E+00 -0.17984E+00  0.39270E+00  0.37965E+00
  0.95998E-01  0.15959E+03    0.96000E-01 -0.45712E-01 -0.50288E-01  0.00000E+00  0.00000E+00  0.00000E+00    0.15959E+03  0.00000E+00  0.00000E+00 -0.17775E+00  0.39619E+00  0.38063E+00
  0.96998E-01  0.16002E+03    0.97000E-01 -0.46187E-01 -0.50813E-01  0.00000E+00  0.00000E+00  0.00000E+00    0.16002E+03  0.00000E+00  0.00000E+00 -0.17564E+00  0.39971E+00  0.38162E+00
  0.97998E-01  0.16046E+03    0.98000E-01 -0.46662E-01 -0.51338E-01  0.00000E+00  0.00000E+00  0.00000E+00    0.16045E+03  0.00000E+00  0.00000E+00 -0.17350E+00  0.40325E+00  0.38262E+00
  0.98998E-01  0.16089E+03    0.99000E-01 -0.47137E-01 -0.51863E-01  0.00000E+00  0.00000E+00  0.00000E+00    0.16089E+03  0.00000E+00  0.00000E+00 -0.17135E+00  0.40681E+00  0.38364E+00
  0.99998E-01  0.16132E+03    0.10000E+00 -0.47611E-01 -0.52389E-01  0.00000E+00  0.00000E+00  0.00000E+00    0.16131E+03  0.00000E+00  0.00000E+00 -0.16918E+00  0.41039E+00  0.38468E+00
