          Evm          Svm            E11          E22          E33          E23          E13          E12         SCAU11       SCAU22       SCAU33       SCAU23       SCAU13       SCAU12      TEMP
  0.00000E+00  0.10408E+03    0.00000E+00  0.00000E+00  0.00000E+00  0.00000E+00  0.00000E+00  0.00000E+00    0.10407E+03  0.00000E+00  0.00000E+00 -0.24139E+00  0.14965E+00  0.28758E+00
  0.99998E-03  0.10479E+03    0.10000E-02 -0.47967E-03 -0.52033E-03  0.00000E+00  0.00000E+00  0.00000E+00    0.10478E+03  0.00000E+00  0.00000E+00 -0.24696E+00  0.15330E+00  0.29148E+00
  0.20000E-02  0.10545E+03    0.20000E-02 -0.95784E-03 -0.10422E-02  0.00000E+00  0.00000E+00  0.00000E+00    0.10545E+03  0.00000E+00  0.00000E+00 -0.24743E+00  0.15459E+00  0.29410E+00
  0.29999E-02  0.10619E+03    0.30000E-02 -0.14356E-02 -0.15644E-02  0.00000E+00  0.00000E+00  0.00000E+00    0.10619E+03  0.00000E+00  0.00000E+00 -0.24883E+00  0.15601E+00  0.29592E+00
  0.39999E-02  0.10693E+03    0.40000E-02 -0.19132E-02 -0.20868E-02  0.00000E+00  0.00000E+00  0.00000E+00    0.10693E+03  0.00000E+00  0.00000E+00 -0.25005E+00  0.15745E+00  0.29745E+00
  0.49999E-02  0.10766E+03    0.50000E-02 -0.23905E-02 -0.26095E-02  0.00000E+00  0.00000E+00  0.00000E+00    0.10766E+03  0.00000E+00  0.00000E+00 -0.25122E+00  0.15894E+00  0.29886E+00
  0.59999E-02  0.10839E+03    0.60000E-02 -0.28678E-02 -0.31322E-02  0.00000E+00  0.00000E+00  0.00000E+00    0.10838E+03  0.00000E+00  0.00000E+00 -0.25234E+00  0.16046E+00  0.30018E+00
  0.69998E-02  0.10909E+03    0.70000E-02 -0.33451E-02 -0.36549E-02  0.00000E+00  0.00000E+00  0.00000E+00    0.10909E+03  0.00000E+00  0.00000E+00 -0.25096E+00  0.16301E+00  0.30150E+00
  0.79998E-02  0.10982E+03    0.80000E-02 -0.38222E-02 -0.41778E-02  0.00000E+00  0.00000E+00  0.00000E+00    0.10982E+03  0.00000E+00  0.00000E+00 -0.25197E+00  0.16476E+00  0.30275E+00
  0.89998E-02  0.11054E+03    0.90000E-02 -0.42993E-02 -0.47007E-02  0.00000E+00  0.00000E+00  0.00000E+00    0.11053E+03  0.00000E+00  0.00000E+00 -0.25292E+00  0.16639E+00  0.30395E+00
  0.99998E-02  0.11124E+03    0.10000E-01 -0.47764E-02 -0.52236E-02  0.00000E+00  0.00000E+00  0.00000E+00    0.11124E+03  0.00000E+00  0.00000E+00 -0.25381E+00  0.16803E+00  0.30513E+00
  0.11000E-01  0.11195E+03    0.11000E-01 -0.52535E-02 -0.57465E-02  0.00000E+00  0.00000E+00  0.00000E+00    0.11195E+03  0.00000E+00  0.00000E+00 -0.25464E+00  0.16969E+00  0.30629E+00
  0.12000E-01  0.11265E+03    0.12000E-01 -0.57305E-02 -0.62695E-02  0.00000E+00  0.00000E+00  0.00000E+00    0.11265E+03  0.00000E+00  0.00000E+00 -0.25542E+00  0.17139E+00  0.30743E+00
  0.13000E-01  0.11335E+03    0.13000E-01 -0.62075E-02 -0.67925E-02  0.00000E+00  0.00000E+00  0.00000E+00    0.11334E+03  0.00000E+00  0.00000E+00 -0.25616E+00  0.17311E+00  0.30854E+00
  0.14000E-01  0.11404E+03    0.14000E-01 -0.66845E-02 -0.73155E-02  0.00000E+00  0.00000E+00  0.00000E+00    0.11403E+03  0.00000E+00  0.00000E+00 -0.25683E+00  0.17485E+00  0.30964E+00
  0.15000E-01  0.11472E+03    0.15000E-01 -0.71614E-02 -0.78386E-02  0.00000E+00  0.00000E+00  0.00000E+00    0.11472E+03  0.00000E+00  0.00000E+00 -0.25746E+00  0.17663E+00  0.31073E+00
  0.16000E-01  0.11541E+03    0.16000E-01 -0.76384E-02 -0.83616E-02  0.00000E+00  0.00000E+00  0.00000E+00    0.11541E+03  0.00000E+00  0.00000E+00 -0.25804E+00  0.17843E+00  0.31180E+00
  0.17000E-01  0.11609E+03    0.17000E-01 -0.81153E-02 -0.88847E-02  0.00000E+00  0.00000E+00  0.00000E+00    0.11608E+03  0.00000E+00  0.00000E+00 -0.25857E+00  0.18026E+00  0.31285E+00
  0.18000E-01  0.11676E+03    0.18000E-01 -0.85922E-02 -0.94078E-02  0.00000E+00  0.00000E+00  0.00000E+00    0.11676E+03  0.00000E+00  0.00000E+00 -0.25905E+00  0.18211E+00  0.31390E+00
  0.19000E-01  0.11743E+03    0.19000E-01 -0.90690E-02 -0.99310E-02  0.00000E+00  0.00000E+00  0.00000E+00    0.11743E+03  0.00000E+00  0.00000E+00 -0.25948E+00  0.18399E+00  0.31493E+00
  0.20000E-01  0.11810E+03    0.20000E-01 -0.95459E-02 -0.10454E-01  0.00000E+00  0.00000E+00  0.00000E+00    0.11810E+03  0.00000E+00  0.00000E+00 -0.25987E+00  0.18590E+00  0.31594E+00
  0.21000E-01  0.11876E+03    0.21000E-01 -0.10023E-01 -0.10977E-01  0.00000E+00  0.00000E+00  0.00000E+00    0.11876E+03  0.00000E+00  0.00000E+00 -0.26020E+00  0.18783E+00  0.31694E+00
  0.22000E-01  0.11942E+03    0.22000E-01 -0.10500E-01 -0.11500E-01  0.00000E+00  0.00000E+00  0.00000E+00    0.11942E+03  0.00000E+00  0.00000E+00 -0.26049E+00  0.18979E+00  0.31793E+00
  0.22999E-01  0.12008E+03    0.23000E-01 -0.10976E-01 -0.12024E-01  0.00000E+00  0.00000E+00  0.00000E+00    0.12007E+03  0.00000E+00  0.00000E+00 -0.26073E+00  0.19178E+00  0.31891E+00
  0.23999E-01  0.12073E+03    0.24000E-01 -0.11453E-01 -0.12547E-01  0.00000E+00  0.00000E+00  0.00000E+00    0.12073E+03  0.00000E+00  0.00000E+00 -0.26093E+00  0.19379E+00  0.31987E+00
  0.24999E-01  0.12138E+03    0.25000E-01 -0.11930E-01 -0.13070E-01  0.00000E+00  0.00000E+00  0.00000E+00    0.12137E+03  0.00000E+00  0.00000E+00 -0.26108E+00  0.19582E+00  0.32083E+00
  0.25999E-01  0.12202E+03    0.26000E-01 -0.12406E-01 -0.13594E-01  0.00000E+00  0.00000E+00  0.00000E+00    0.12202E+03  0.00000E+00  0.00000E+00 -0.26118E+00  0.19788E+00  0.32177E+00
  0.26999E-01  0.12266E+03    0.27000E-01 -0.12883E-01 -0.14117E-01  0.00000E+00  0.00000E+00  0.00000E+00    0.12266E+03  0.00000E+00  0.00000E+00 -0.26124E+00  0.19998E+00  0.32271E+00
  0.27999E-01  0.12329E+03    0.28000E-01 -0.13360E-01 -0.14640E-01  0.00000E+00  0.00000E+00  0.00000E+00    0.12329E+03  0.00000E+00  0.00000E+00 -0.26125E+00  0.20208E+00  0.32363E+00
  0.28999E-01  0.12393E+03    0.29000E-01 -0.13836E-01 -0.15164E-01  0.00000E+00  0.00000E+00  0.00000E+00    0.12392E+03  0.00000E+00  0.00000E+00 -0.26122E+00  0.20422E+00  0.32455E+00
  0.29999E-01  0.12455E+03    0.30000E-01 -0.14313E-01 -0.15687E-01  0.00000E+00  0.00000E+00  0.00000E+00    0.12455E+03  0.00000E+00  0.00000E+00 -0.26115E+00  0.20638E+00  0.32545E+00
  0.30999E-01  0.12518E+03    0.31000E-01 -0.14790E-01 -0.16210E-01  0.00000E+00  0.00000E+00  0.00000E+00    0.12518E+03  0.00000E+00  0.00000E+00 -0.26103E+00  0.20856E+00  0.32635E+00
  0.31999E-01  0.12580E+03    0.32000E-01 -0.15266E-01 -0.16734E-01  0.00000E+00  0.00000E+00  0.00000E+00    0.12580E+03  0.00000E+00  0.00000E+00 -0.26087E+00  0.21077E+00  0.32723E+00
  0.32999E-01  0.12642E+03    0.33000E-01 -0.15743E-01 -0.17257E-01  0.00000E+00  0.00000E+00  0.00000E+00    0.12642E+03  0.00000E+00  0.00000E+00 -0.26067E+00  0.21300E+00  0.32811E+00
  0.33999E-01  0.12703E+03    0.34000E-01 -0.16219E-01 -0.17781E-01  0.00000E+00  0.00000E+00  0.00000E+00    0.12703E+03  0.00000E+00  0.00000E+00 -0.26042E+00  0.21525E+00  0.32898E+00
  0.34999E-01  0.12764E+03    0.35000E-01 -0.16696E-01 -0.18304E-01  0.00000E+00  0.00000E+00  0.00000E+00    0.12764E+03  0.00000E+00  0.00000E+00 -0.26014E+00  0.21753E+00  0.32985E+00
  0.35999E-01  0.12825E+03    0.36000E-01 -0.17172E-01 -0.18828E-01  0.00000E+00  0.00000E+00  0.00000E+00    0.12825E+03  0.00000E+00  0.00000E+00 -0.25981E+00  0.21983E+00  0.33070E+00
  0.36999E-01  0.12885E+03    0.37000E-01 -0.17649E-01 -0.19351E-01  0.00000E+00  0.00000E+00  0.00000E+00    0.12885E+03  0.00000E+00  0.00000E+00 -0.25945E+00  0.22215E+00  0.33155E+00
  0.37999E-01  0.12945E+03    0.38000E-01 -0.18125E-01 -0.19875E-01  0.00000E+00  0.00000E+00  0.00000E+00    0.12945E+03  0.00000E+00  0.00000E+00 -0.25905E+00  0.22450E+00  0.33239E+00
  0.38999E-01  0.13005E+03    0.39000E-01 -0.18601E-01 -0.20399E-01  0.00000E+00  0.00000E+00  0.00000E+00    0.13004E+03  0.00000E+00  0.00000E+00 -0.25860E+00  0.22686E+00  0.33322E+00
  0.39999E-01  0.13064E+03    0.40000E-01 -0.19078E-01 -0.20922E-01  0.00000E+00  0.00000E+00  0.00000E+00    0.13064E+03  0.00000E+00  0.00000E+00 -0.25812E+00  0.22925E+00  0.33404E+00
  0.40999E-01  0.13123E+03    0.41000E-01 -0.19554E-01 -0.21446E-01  0.00000E+00  0.00000E+00  0.00000E+00    0.13123E+03  0.00000E+00  0.00000E+00 -0.25760E+00  0.23166E+00  0.33486E+00
  0.41999E-01  0.13181E+03    0.42000E-01 -0.20030E-01 -0.21970E-01  0.00000E+00  0.00000E+00  0.00000E+00    0.13181E+03  0.00000E+00  0.00000E+00 -0.25704E+00  0.23410E+00  0.33568E+00
  0.42999E-01  0.13240E+03    0.43000E-01 -0.20507E-01 -0.22493E-01  0.00000E+00  0.00000E+00  0.00000E+00    0.13239E+03  0.00000E+00  0.00000E+00 -0.25644E+00  0.23655E+00  0.33649E+00
  0.43999E-01  0.13298E+03    0.44000E-01 -0.20983E-01 -0.23017E-01  0.00000E+00  0.00000E+00  0.00000E+00    0.13297E+03  0.00000E+00  0.00000E+00 -0.25581E+00  0.23903E+00  0.33728E+00
  0.44999E-01  0.13351E+03    0.45000E-01 -0.21459E-01 -0.23541E-01  0.00000E+00  0.00000E+00  0.00000E+00    0.13351E+03  0.00000E+00  0.00000E+00 -0.25896E+00  0.23952E+00  0.33810E+00
  0.45999E-01  0.13412E+03    0.46000E-01 -0.21935E-01 -0.24065E-01  0.00000E+00  0.00000E+00  0.00000E+00    0.13412E+03  0.00000E+00  0.00000E+00 -0.25469E+00  0.24385E+00  0.33883E+00
  0.46999E-01  0.13465E+03    0.47000E-01 -0.22412E-01 -0.24588E-01  0.00000E+00  0.00000E+00  0.00000E+00    0.13465E+03  0.00000E+00  0.00000E+00 -0.25753E+00  0.24451E+00  0.33969E+00
  0.47999E-01  0.13522E+03    0.48000E-01 -0.22888E-01 -0.25112E-01  0.00000E+00  0.00000E+00  0.00000E+00    0.13522E+03  0.00000E+00  0.00000E+00 -0.25685E+00  0.24694E+00  0.34048E+00
  0.48999E-01  0.13578E+03    0.49000E-01 -0.23364E-01 -0.25636E-01  0.00000E+00  0.00000E+00  0.00000E+00    0.13578E+03  0.00000E+00  0.00000E+00 -0.25604E+00  0.24949E+00  0.34126E+00
  0.49999E-01  0.13634E+03    0.50000E-01 -0.23840E-01 -0.26160E-01  0.00000E+00  0.00000E+00  0.00000E+00    0.13634E+03  0.00000E+00  0.00000E+00 -0.25520E+00  0.25206E+00  0.34204E+00
  0.50999E-01  0.13690E+03    0.51000E-01 -0.24316E-01 -0.26684E-01  0.00000E+00  0.00000E+00  0.00000E+00    0.13690E+03  0.00000E+00  0.00000E+00 -0.25432E+00  0.25465E+00  0.34282E+00
  0.51999E-01  0.13745E+03    0.52000E-01 -0.24792E-01 -0.27208E-01  0.00000E+00  0.00000E+00  0.00000E+00    0.13745E+03  0.00000E+00  0.00000E+00 -0.25341E+00  0.25725E+00  0.34359E+00
  0.52999E-01  0.13800E+03    0.53000E-01 -0.25268E-01 -0.27732E-01  0.00000E+00  0.00000E+00  0.00000E+00    0.13800E+03  0.00000E+00  0.00000E+00 -0.25246E+00  0.25988E+00  0.34437E+00
  0.53999E-01  0.13855E+03    0.54000E-01 -0.25744E-01 -0.28256E-01  0.00000E+00  0.00000E+00  0.00000E+00    0.13855E+03  0.00000E+00  0.00000E+00 -0.25148E+00  0.26253E+00  0.34514E+00
  0.54999E-01  0.13909E+03    0.55000E-01 -0.26220E-01 -0.28780E-01  0.00000E+00  0.00000E+00  0.00000E+00    0.13909E+03  0.00000E+00  0.00000E+00 -0.25048E+00  0.26519E+00  0.34591E+00
  0.55999E-01  0.13965E+03    0.56000E-01 -0.26696E-01 -0.29304E-01  0.00000E+00  0.00000E+00  0.00000E+00    0.13965E+03  0.00000E+00  0.00000E+00 -0.24581E+00  0.26992E+00  0.34650E+00
  0.56999E-01  0.14017E+03    0.57000E-01 -0.27172E-01 -0.29828E-01  0.00000E+00  0.00000E+00  0.00000E+00    0.14017E+03  0.00000E+00  0.00000E+00 -0.24830E+00  0.27067E+00  0.34744E+00
  0.57999E-01  0.14073E+03    0.58000E-01 -0.27648E-01 -0.30352E-01  0.00000E+00  0.00000E+00  0.00000E+00    0.14073E+03  0.00000E+00  0.00000E+00 -0.24365E+00  0.27538E+00  0.34801E+00
  0.58999E-01  0.14124E+03    0.59000E-01 -0.28124E-01 -0.30876E-01  0.00000E+00  0.00000E+00  0.00000E+00    0.14123E+03  0.00000E+00  0.00000E+00 -0.24604E+00  0.27614E+00  0.34895E+00
  0.59999E-01  0.14175E+03    0.60000E-01 -0.28600E-01 -0.31400E-01  0.00000E+00  0.00000E+00  0.00000E+00    0.14175E+03  0.00000E+00  0.00000E+00 -0.24538E+00  0.27861E+00  0.34968E+00
  0.60999E-01  0.14230E+03    0.61000E-01 -0.29075E-01 -0.31925E-01  0.00000E+00  0.00000E+00  0.00000E+00    0.14229E+03  0.00000E+00  0.00000E+00 -0.24376E+00  0.28157E+00  0.35046E+00
  0.61999E-01  0.14280E+03    0.62000E-01 -0.29551E-01 -0.32449E-01  0.00000E+00  0.00000E+00  0.00000E+00    0.14280E+03  0.00000E+00  0.00000E+00 -0.24295E+00  0.28417E+00  0.35120E+00
  0.62999E-01  0.14334E+03    0.63000E-01 -0.30027E-01 -0.32973E-01  0.00000E+00  0.00000E+00  0.00000E+00    0.14334E+03  0.00000E+00  0.00000E+00 -0.24127E+00  0.28718E+00  0.35197E+00
  0.63999E-01  0.14384E+03    0.64000E-01 -0.30503E-01 -0.33497E-01  0.00000E+00  0.00000E+00  0.00000E+00    0.14384E+03  0.00000E+00  0.00000E+00 -0.24040E+00  0.28981E+00  0.35272E+00
  0.64999E-01  0.14437E+03    0.65000E-01 -0.30979E-01 -0.34021E-01  0.00000E+00  0.00000E+00  0.00000E+00    0.14437E+03  0.00000E+00  0.00000E+00 -0.23866E+00  0.29286E+00  0.35348E+00
  0.65999E-01  0.14487E+03    0.66000E-01 -0.31454E-01 -0.34546E-01  0.00000E+00  0.00000E+00  0.00000E+00    0.14487E+03  0.00000E+00  0.00000E+00 -0.23773E+00  0.29552E+00  0.35423E+00
  0.66999E-01  0.14539E+03    0.67000E-01 -0.31930E-01 -0.35070E-01  0.00000E+00  0.00000E+00  0.00000E+00    0.14539E+03  0.00000E+00  0.00000E+00 -0.23593E+00  0.29861E+00  0.35500E+00
  0.67999E-01  0.14589E+03    0.68000E-01 -0.32405E-01 -0.35595E-01  0.00000E+00  0.00000E+00  0.00000E+00    0.14588E+03  0.00000E+00  0.00000E+00 -0.23494E+00  0.30131E+00  0.35575E+00
  0.68999E-01  0.14640E+03    0.69000E-01 -0.32881E-01 -0.36119E-01  0.00000E+00  0.00000E+00  0.00000E+00    0.14640E+03  0.00000E+00  0.00000E+00 -0.23309E+00  0.30443E+00  0.35652E+00
  0.69999E-01  0.14689E+03    0.70000E-01 -0.33357E-01 -0.36643E-01  0.00000E+00  0.00000E+00  0.00000E+00    0.14689E+03  0.00000E+00  0.00000E+00 -0.23204E+00  0.30717E+00  0.35727E+00
  0.70999E-01  0.14739E+03    0.71000E-01 -0.33832E-01 -0.37168E-01  0.00000E+00  0.00000E+00  0.00000E+00    0.14738E+03  0.00000E+00  0.00000E+00 -0.23063E+00  0.31010E+00  0.35804E+00
  0.71999E-01  0.14788E+03    0.72000E-01 -0.34308E-01 -0.37692E-01  0.00000E+00  0.00000E+00  0.00000E+00    0.14788E+03  0.00000E+00  0.00000E+00 -0.22913E+00  0.31307E+00  0.35881E+00
  0.72998E-01  0.14837E+03    0.73000E-01 -0.34783E-01 -0.38217E-01  0.00000E+00  0.00000E+00  0.00000E+00    0.14837E+03  0.00000E+00  0.00000E+00 -0.22758E+00  0.31606E+00  0.35958E+00
  0.73998E-01  0.14887E+03    0.74000E-01 -0.35259E-01 -0.38741E-01  0.00000E+00  0.00000E+00  0.00000E+00    0.14886E+03  0.00000E+00  0.00000E+00 -0.22601E+00  0.31907E+00  0.36035E+00
  0.74998E-01  0.14935E+03    0.75000E-01 -0.35734E-01 -0.39266E-01  0.00000E+00  0.00000E+00  0.00000E+00    0.14935E+03  0.00000E+00  0.00000E+00 -0.22441E+00  0.32210E+00  0.36113E+00
  0.75998E-01  0.14984E+03    0.76000E-01 -0.36210E-01 -0.39790E-01  0.00000E+00  0.00000E+00  0.00000E+00    0.14984E+03  0.00000E+00  0.00000E+00 -0.22279E+00  0.32515E+00  0.36192E+00
  0.76998E-01  0.15032E+03    0.77000E-01 -0.36685E-01 -0.40315E-01  0.00000E+00  0.00000E+00  0.00000E+00    0.15032E+03  0.00000E+00  0.00000E+00 -0.22114E+00  0.32821E+00  0.36270E+00
  0.77998E-01  0.15080E+03    0.78000E-01 -0.37160E-01 -0.40840E-01  0.00000E+00  0.00000E+00  0.00000E+00    0.15080E+03  0.00000E+00  0.00000E+00 -0.21947E+00  0.33130E+00  0.36349E+00
  0.78998E-01  0.15128E+03    0.79000E-01 -0.37636E-01 -0.41364E-01  0.00000E+00  0.00000E+00  0.00000E+00    0.15128E+03  0.00000E+00  0.00000E+00 -0.21776E+00  0.33440E+00  0.36429E+00
  0.79998E-01  0.15175E+03    0.80000E-01 -0.38111E-01 -0.41889E-01  0.00000E+00  0.00000E+00  0.00000E+00    0.15175E+03  0.00000E+00  0.00000E+00 -0.21604E+00  0.33753E+00  0.36510E+00
  0.80998E-01  0.15223E+03    0.81000E-01 -0.38586E-01 -0.42414E-01  0.00000E+00  0.00000E+00  0.00000E+00    0.15222E+03  0.00000E+00  0.00000E+00 -0.21429E+00  0.34067E+00  0.36591E+00
  0.81998E-01  0.15270E+03    0.82000E-01 -0.39062E-01 -0.42938E-01  0.00000E+00  0.00000E+00  0.00000E+00    0.15269E+03  0.00000E+00  0.00000E+00 -0.21251E+00  0.34383E+00  0.36673E+00
  0.82998E-01  0.15316E+03    0.83000E-01 -0.39537E-01 -0.43463E-01  0.00000E+00  0.00000E+00  0.00000E+00    0.15316E+03  0.00000E+00  0.00000E+00 -0.21071E+00  0.34701E+00  0.36756E+00
  0.83998E-01  0.15363E+03    0.84000E-01 -0.40012E-01 -0.43988E-01  0.00000E+00  0.00000E+00  0.00000E+00    0.15363E+03  0.00000E+00  0.00000E+00 -0.20889E+00  0.35022E+00  0.36840E+00
  0.84998E-01  0.15409E+03    0.85000E-01 -0.40487E-01 -0.44513E-01  0.00000E+00  0.00000E+00  0.00000E+00    0.15409E+03  0.00000E+00  0.00000E+00 -0.19851E+00  0.35748E+00  0.36928E+00
  0.85998E-01  0.15452E+03    0.86000E-01 -0.40962E-01 -0.45038E-01  0.00000E+00  0.00000E+00  0.00000E+00    0.15452E+03  0.00000E+00  0.00000E+00 -0.19887E+00  0.36022E+00  0.37027E+00
  0.86998E-01  0.15497E+03    0.87000E-01 -0.41437E-01 -0.45563E-01  0.00000E+00  0.00000E+00  0.00000E+00    0.15497E+03  0.00000E+00  0.00000E+00 -0.19664E+00  0.36360E+00  0.37116E+00
  0.87998E-01  0.15543E+03    0.88000E-01 -0.41913E-01 -0.46087E-01  0.00000E+00  0.00000E+00  0.00000E+00    0.15543E+03  0.00000E+00  0.00000E+00 -0.19472E+00  0.36691E+00  0.37205E+00
  0.88998E-01  0.15588E+03    0.89000E-01 -0.42388E-01 -0.46612E-01  0.00000E+00  0.00000E+00  0.00000E+00    0.15588E+03  0.00000E+00  0.00000E+00 -0.19278E+00  0.37024E+00  0.37294E+00
  0.89998E-01  0.15633E+03    0.90000E-01 -0.42863E-01 -0.47137E-01  0.00000E+00  0.00000E+00  0.00000E+00    0.15633E+03  0.00000E+00  0.00000E+00 -0.19082E+00  0.37359E+00  0.37384E+00
  0.90998E-01  0.15684E+03    0.91000E-01 -0.43338E-01 -0.47662E-01  0.00000E+00  0.00000E+00  0.00000E+00    0.15684E+03  0.00000E+00  0.00000E+00 -0.18688E+00  0.37779E+00  0.37463E+00
  0.91998E-01  0.15730E+03    0.92000E-01 -0.43813E-01 -0.48187E-01  0.00000E+00  0.00000E+00  0.00000E+00    0.15730E+03  0.00000E+00  0.00000E+00 -0.18537E+00  0.38107E+00  0.37553E+00
  0.92998E-01  0.15774E+03    0.93000E-01 -0.44288E-01 -0.48712E-01  0.00000E+00  0.00000E+00  0.00000E+00    0.15774E+03  0.00000E+00  0.00000E+00 -0.18335E+00  0.38449E+00  0.37646E+00
  0.93998E-01  0.15818E+03    0.94000E-01 -0.44762E-01 -0.49238E-01  0.00000E+00  0.00000E+00  0.00000E+00    0.15818E+03  0.00000E+00  0.00000E+00 -0.18130E+00  0.38794E+00  0.37741E+00
  0.94998E-01  0.15862E+03    0.95000E-01 -0.45237E-01 -0.49763E-01  0.00000E+00  0.00000E+00  0.00000E+00    0.15862E+03  0.00000E+00  0.00000E+00 -0.17924E+00  0.39140E+00  0.37837E+00
  0.95998E-01  0.15906E+03    0.96000E-01 -0.45712E-01 -0.50288E-01  0.00000E+00  0.00000E+00  0.00000E+00    0.15906E+03  0.00000E+00  0.00000E+00 -0.17715E+00  0.39489E+00  0.37934E+00
  0.96998E-01  0.15950E+03    0.97000E-01 -0.46187E-01 -0.50813E-01  0.00000E+00  0.00000E+00  0.00000E+00    0.15949E+03  0.00000E+00  0.00000E+00 -0.17505E+00  0.39839E+00  0.38033E+00
  0.97998E-01  0.15993E+03    0.98000E-01 -0.46662E-01 -0.51338E-01  0.00000E+00  0.00000E+00  0.00000E+00    0.15993E+03  0.00000E+00  0.00000E+00 -0.17292E+00  0.40193E+00  0.38134E+00
  0.98998E-01  0.16036E+03    0.99000E-01 -0.47137E-01 -0.51863E-01  0.00000E+00  0.00000E+00  0.00000E+00    0.16036E+03  0.00000E+00  0.00000E+00 -0.17078E+00  0.40548E+00  0.38236E+00
  0.99998E-01  0.16079E+03    0.10000E+00 -0.47612E-01 -0.52388E-01  0.00000E+00  0.00000E+00  0.00000E+00    0.16079E+03  0.00000E+00  0.00000E+00 -0.16862E+00  0.40906E+00  0.38340E+00
